Time (sec),"CH 1, ECG (mV)","CH40, Heart Rate (mV)"
0,0.014648438,0
0.001,0.014953613,0
0.002,0.015869141,0
0.003,0.016479492,0
0.004,0.01739502,0
0.005,0.018310547,0
0.006,0.018920898,0
0.007,0.019836426,0
0.008,0.020446777,0
0.009,0.02166748,0
0.01,0.023193359,0
0.011,0.025024414,0
0.012,0.026855469,0
0.013,0.029296875,0
0.014,0.031433105,0
0.015,0.033569336,0
0.016,0.036010742,0
0.017,0.038452148,0
0.018,0.040893555,0
0.019,0.043640137,0
0.02,0.046386719,0
0.021,0.049133301,0
0.022,0.051269531,0
0.023,0.053100586,0
0.024,0.054626465,0
0.025,0.056152344,0
0.026,0.057678223,0
0.027,0.058898926,0
0.028,0.060424805,0
0.029,0.061645508,0
0.03,0.062561035,0
0.031,0.063171387,0
0.032,0.063781738,0
0.033,0.064086914,0
0.034,0.06439209,0
0.035,0.06439209,0
0.036,0.06439209,0
0.037,0.064086914,0
0.038,0.063781738,0
0.039,0.063476563,0
0.04,0.063171387,0
0.041,0.062866211,0
0.042,0.062255859,0
0.043,0.061645508,0
0.044,0.060424805,0
0.045,0.05859375,0
0.046,0.056762695,0
0.047,0.054321289,0
0.048,0.051879883,0
0.049,0.049438477,0
0.05,0.04699707,0
0.051,0.044250488,0
0.052,0.04119873,0
0.053,0.038146973,0
0.054,0.034790039,0
0.055,0.03112793,0
0.056,0.02746582,0
0.057,0.023803711,0
0.058,0.019836426,0
0.059,0.016479492,0
0.06,0.013122559,0
0.061,0.010070801,0
0.062,0.007019043,0
0.063,0.003967285,0
0.064,0.000915527,0
0.065,-0.00213623,0
0.066,-0.005187988,0
0.067,-0.008239746,0
0.068,-0.010986328,0
0.069,-0.01373291,0
0.07,-0.015869141,0
0.071,-0.017700195,0
0.072,-0.01953125,0
0.073,-0.021057129,0
0.074,-0.022583008,0
0.075,-0.024108887,0
0.076,-0.02532959,0
0.077,-0.026550293,0
0.078,-0.02746582,0
0.079,-0.028381348,0
0.08,-0.029296875,0
0.081,-0.030212402,0
0.082,-0.03112793,0
0.083,-0.032043457,0
0.084,-0.032653809,0
0.085,-0.032958984,0
0.086,-0.03326416,0
0.087,-0.033569336,0
0.088,-0.033874512,0
0.089,-0.034484863,0
0.09,-0.035095215,0
0.091,-0.036010742,0
0.092,-0.037231445,0
0.093,-0.038452148,0
0.094,-0.039672852,0
0.095,-0.04119873,0
0.096,-0.042724609,0
0.097,-0.043945313,0
0.098,-0.045471191,0
0.099,-0.046691895,0
0.1,-0.047607422,0
0.101,-0.048828125,0
0.102,-0.049743652,0
0.103,-0.050964355,0
0.104,-0.051879883,0
0.105,-0.05279541,0
0.106,-0.053405762,0
0.107,-0.053710938,0
0.108,-0.054016113,0
0.109,-0.053710938,0
0.11,-0.053100586,0
0.111,-0.052185059,0
0.112,-0.051269531,0
0.113,-0.05065918,0
0.114,-0.050354004,0
0.115,-0.050048828,0
0.116,-0.050354004,0
0.117,-0.05065918,0
0.118,-0.051269531,0
0.119,-0.052185059,0
0.12,-0.053405762,0
0.121,-0.054321289,0
0.122,-0.055236816,0
0.123,-0.056152344,0
0.124,-0.057067871,0
0.125,-0.057983398,0
0.126,-0.05859375,0
0.127,-0.059509277,0
0.128,-0.059814453,0
0.129,-0.059814453,0
0.13,-0.059509277,0
0.131,-0.058898926,0
0.132,-0.057678223,0
0.133,-0.056152344,0
0.134,-0.054626465,0
0.135,-0.053100586,0
0.136,-0.051879883,0
0.137,-0.051269531,0
0.138,-0.050964355,0
0.139,-0.051269531,0
0.14,-0.052490234,0
0.141,-0.054626465,0
0.142,-0.057373047,0
0.143,-0.061340332,0
0.144,-0.065917969,0
0.145,-0.071716309,0
0.146,-0.078125,0
0.147,-0.08605957,0
0.148,-0.094604492,0
0.149,-0.10345459,0
0.15,-0.112609863,0
0.151,-0.121154785,0
0.152,-0.128479004,0
0.153,-0.134887695,0
0.154,-0.139770508,0
0.155,-0.142822266,0
0.156,-0.144042969,0
0.157,-0.143432617,0
0.158,-0.140075684,0
0.159,-0.133666992,0
0.16,-0.123596191,0
0.161,-0.109863281,0
0.162,-0.09185791,0
0.163,-0.069885254,0
0.164,-0.043945313,0
0.165,-0.014038086,0
0.166,0.019226074,0
0.167,0.056152344,0
0.168,0.096435547,0
0.169,0.139465332,0
0.17,0.185241699,0
0.171,0.233459473,0
0.172,0.283813477,0
0.173,0.335388184,0
0.174,0.388183594,0
0.175,0.44128418,0
0.176,0.494384766,0
0.177,0.547180176,0
0.178,0.599060059,0
0.179,0.649719238,0
0.18,0.698242188,0
0.181,0.744628906,0
0.182,0.788574219,0
0.183,0.830383301,0
0.184,0.869445801,0
0.185,0.90637207,0
0.186,0.940246582,0
0.187,0.97076416,0
0.188,0.997009277,0
0.189,1.018676758,0
0.19,1.035461426,0
0.191,1.04675293,0
0.192,1.052246094,0
0.193,1.051025391,0
0.194,1.042785645,0
0.195,1.026916504,0
0.196,1.003723145,0
0.197,0.972900391,0
0.198,0.934753418,0
0.199,0.889587402,0
0.2,0.83770752,0
0.201,0.779418945,0
0.202,0.715332031,0
0.203,0.646972656,0
0.204,0.574951172,0
0.205,0.501098633,0
0.206,0.426940918,0
0.207,0.353088379,0
0.208,0.281066895,0
0.209,0.212097168,0
0.21,0.147399902,0
0.211,0.087585449,0
0.212,0.034179688,0
0.213,-0.012817383,0
0.214,-0.052490234,0
0.215,-0.085449219,0
0.216,-0.11138916,0
0.217,-0.13092041,0
0.218,-0.14465332,0
0.219,-0.152893066,0
0.22,-0.156860352,0
0.221,-0.156860352,0
0.222,-0.153808594,0
0.223,-0.14831543,0
0.224,-0.141296387,0
0.225,-0.133361816,0
0.226,-0.124816895,0
0.227,-0.116271973,0
0.228,-0.108032227,0
0.229,-0.100402832,0
0.23,-0.093688965,0
0.231,-0.087890625,0
0.232,-0.083312988,0
0.233,-0.079956055,0
0.234,-0.077514648,0
0.235,-0.076293945,0
0.236,-0.07598877,0
0.237,-0.076293945,0
0.238,-0.077209473,0
0.239,-0.078735352,0
0.24,-0.08026123,0
0.241,-0.082397461,0
0.242,-0.084533691,0
0.243,-0.086669922,0
0.244,-0.088500977,0
0.245,-0.090026855,0
0.246,-0.091552734,0
0.247,-0.092468262,0
0.248,-0.093383789,0
0.249,-0.094299316,0
0.25,-0.094604492,0
0.251,-0.094604492,0
0.252,-0.094604492,0
0.253,-0.094604492,0
0.254,-0.094299316,0
0.255,-0.093994141,0
0.256,-0.093688965,0
0.257,-0.093383789,0
0.258,-0.093078613,0
0.259,-0.092773438,0
0.26,-0.092468262,0
0.261,-0.09185791,0
0.262,-0.091247559,0
0.263,-0.090942383,0
0.264,-0.090637207,0
0.265,-0.090332031,0
0.266,-0.090026855,0
0.267,-0.089416504,0
0.268,-0.088806152,0
0.269,-0.088195801,0
0.27,-0.087280273,0
0.271,-0.086669922,0
0.272,-0.085449219,0
0.273,-0.084533691,0
0.274,-0.083312988,0
0.275,-0.082092285,0
0.276,-0.080566406,0
0.277,-0.079345703,0
0.278,-0.077819824,0
0.279,-0.076293945,0
0.28,-0.074768066,0
0.281,-0.073547363,0
0.282,-0.072021484,0
0.283,-0.070495605,0
0.284,-0.068969727,0
0.285,-0.067443848,0
0.286,-0.065917969,0
0.287,-0.064086914,0
0.288,-0.062561035,0
0.289,-0.06072998,0
0.29,-0.059204102,0
0.291,-0.057067871,0
0.292,-0.055236816,0
0.293,-0.053405762,0
0.294,-0.051269531,0
0.295,-0.049438477,0
0.296,-0.047912598,0
0.297,-0.046386719,0
0.298,-0.045166016,0
0.299,-0.044555664,0
0.3,-0.043945313,0
0.301,-0.043640137,0
0.302,-0.043334961,0
0.303,-0.042724609,0
0.304,-0.042114258,0
0.305,-0.041809082,0
0.306,-0.041503906,0
0.307,-0.041503906,0
0.308,-0.041503906,0
0.309,-0.041503906,0
0.31,-0.04119873,0
0.311,-0.040283203,0
0.312,-0.039367676,0
0.313,-0.038146973,0
0.314,-0.036621094,0
0.315,-0.035400391,0
0.316,-0.033874512,0
0.317,-0.032348633,0
0.318,-0.030517578,0
0.319,-0.028686523,0
0.32,-0.026550293,0
0.321,-0.024108887,0
0.322,-0.021972656,0
0.323,-0.019836426,0
0.324,-0.018310547,0
0.325,-0.01739502,0
0.326,-0.016479492,0
0.327,-0.015869141,0
0.328,-0.014953613,0
0.329,-0.014648438,0
0.33,-0.014038086,0
0.331,-0.014038086,0
0.332,-0.014038086,0
0.333,-0.014343262,0
0.334,-0.014953613,0
0.335,-0.015563965,0
0.336,-0.016174316,0
0.337,-0.016784668,0
0.338,-0.017089844,0
0.339,-0.01739502,0
0.34,-0.01739502,0
0.341,-0.017089844,0
0.342,-0.016784668,0
0.343,-0.016174316,0
0.344,-0.014953613,0
0.345,-0.01373291,0
0.346,-0.011901855,0
0.347,-0.010070801,0
0.348,-0.008239746,0
0.349,-0.006103516,0
0.35,-0.003662109,0
0.351,-0.001220703,0
0.352,0.001831055,0
0.353,0.004577637,0
0.354,0.007324219,0
0.355,0.010070801,0
0.356,0.012512207,0
0.357,0.014648438,0
0.358,0.016479492,0
0.359,0.018310547,0
0.36,0.019836426,0
0.361,0.021362305,0
0.362,0.022888184,0
0.363,0.024108887,0
0.364,0.025024414,0
0.365,0.025939941,0
0.366,0.026855469,0
0.367,0.027160645,0
0.368,0.02746582,0
0.369,0.02746582,0
0.37,0.02746582,0
0.371,0.02746582,0
0.372,0.02746582,0
0.373,0.027770996,0
0.374,0.027770996,0
0.375,0.028076172,0
0.376,0.028686523,0
0.377,0.029296875,0
0.378,0.030517578,0
0.379,0.031738281,0
0.38,0.03326416,0
0.381,0.034790039,0
0.382,0.036621094,0
0.383,0.038452148,0
0.384,0.039978027,0
0.385,0.041809082,0
0.386,0.043334961,0
0.387,0.045471191,0
0.388,0.047302246,0
0.389,0.049133301,0
0.39,0.050964355,0
0.391,0.05279541,0
0.392,0.054016113,0
0.393,0.055236816,0
0.394,0.05645752,0
0.395,0.057678223,0
0.396,0.058898926,0
0.397,0.059814453,0
0.398,0.06072998,0
0.399,0.061950684,0
0.4,0.063476563,0
0.401,0.065307617,0
0.402,0.067749023,0
0.403,0.07019043,0
0.404,0.07232666,0
0.405,0.074768066,0
0.406,0.076904297,0
0.407,0.079040527,0
0.408,0.081176758,0
0.409,0.083312988,0
0.41,0.085449219,0
0.411,0.087585449,0
0.412,0.08972168,0
0.413,0.09185791,0
0.414,0.093688965,0
0.415,0.09552002,0
0.416,0.097045898,0
0.417,0.098571777,0
0.418,0.100097656,0
0.419,0.101623535,0
0.42,0.102844238,0
0.421,0.104675293,0
0.422,0.106506348,0
0.423,0.108642578,0
0.424,0.110778809,0
0.425,0.112609863,0
0.426,0.114135742,0
0.427,0.114746094,0
0.428,0.115356445,0
0.429,0.115661621,0
0.43,0.115661621,0
0.431,0.115356445,0
0.432,0.11505127,0
0.433,0.114440918,0
0.434,0.113525391,0
0.435,0.112304688,0
0.436,0.111083984,0
0.437,0.109558105,0
0.438,0.108032227,0
0.439,0.106506348,0
0.44,0.105285645,0
0.441,0.103759766,0
0.442,0.102233887,0
0.443,0.101013184,0
0.444,0.09979248,0
0.445,0.098571777,0
0.446,0.097961426,0
0.447,0.097351074,0
0.448,0.097351074,0
0.449,0.09765625,0
0.45,0.097961426,0
0.451,0.097961426,0
0.452,0.097351074,0
0.453,0.096435547,0
0.454,0.094909668,0
0.455,0.092773438,0
0.456,0.090026855,0
0.457,0.087280273,0
0.458,0.084228516,0
0.459,0.080871582,0
0.46,0.077209473,0
0.461,0.073547363,0
0.462,0.069274902,0
0.463,0.06439209,0
0.464,0.059204102,0
0.465,0.053710938,0
0.466,0.048217773,0
0.467,0.042724609,0
0.468,0.037231445,0
0.469,0.031738281,0
0.47,0.026855469,0
0.471,0.022277832,0
0.472,0.018005371,0
0.473,0.014038086,0
0.474,0.009765625,0
0.475,0.005493164,0
0.476,0.001220703,0
0.477,-0.003051758,0
0.478,-0.007019043,0
0.479,-0.010986328,0
0.48,-0.015258789,0
0.481,-0.01953125,0
0.482,-0.024108887,0
0.483,-0.028381348,0
0.484,-0.032958984,0
0.485,-0.037536621,0
0.486,-0.042419434,0
0.487,-0.047302246,0
0.488,-0.051879883,0
0.489,-0.05645752,0
0.49,-0.060424805,0
0.491,-0.064086914,0
0.492,-0.067443848,0
0.493,-0.069885254,0
0.494,-0.071716309,0
0.495,-0.073242188,0
0.496,-0.074157715,0
0.497,-0.074768066,0
0.498,-0.075073242,0
0.499,-0.075073242,0
0.5,-0.075073242,0
0.501,-0.074768066,0
0.502,-0.074768066,0
0.503,-0.074768066,0
0.504,-0.074768066,0
0.505,-0.074768066,0
0.506,-0.075073242,0
0.507,-0.075378418,0
0.508,-0.075683594,0
0.509,-0.076599121,0
0.51,-0.077209473,0
0.511,-0.077819824,0
0.512,-0.078430176,0
0.513,-0.078735352,0
0.514,-0.079040527,0
0.515,-0.079345703,0
0.516,-0.079040527,0
0.517,-0.078430176,0
0.518,-0.078125,0
0.519,-0.077819824,0
0.52,-0.077819824,0
0.521,-0.078125,0
0.522,-0.078125,0
0.523,-0.078125,0
0.524,-0.078125,0
0.525,-0.078735352,0
0.526,-0.079345703,0
0.527,-0.079956055,0
0.528,-0.080871582,0
0.529,-0.082092285,0
0.53,-0.083312988,0
0.531,-0.084533691,0
0.532,-0.085754395,0
0.533,-0.086975098,0
0.534,-0.088195801,0
0.535,-0.089111328,0
0.536,-0.090026855,0
0.537,-0.090637207,0
0.538,-0.090637207,0
0.539,-0.090637207,0
0.54,-0.090332031,0
0.541,-0.08972168,0
0.542,-0.089111328,0
0.543,-0.088195801,0
0.544,-0.087585449,0
0.545,-0.086975098,0
0.546,-0.086364746,0
0.547,-0.085754395,0
0.548,-0.085144043,0
0.549,-0.084533691,0
0.55,-0.083312988,0
0.551,-0.082092285,0
0.552,-0.080566406,0
0.553,-0.079040527,0
0.554,-0.077209473,0
0.555,-0.075378418,0
0.556,-0.073547363,0
0.557,-0.07232666,0
0.558,-0.071716309,0
0.559,-0.071105957,0
0.56,-0.07019043,0
0.561,-0.068969727,0
0.562,-0.067749023,0
0.563,-0.066833496,0
0.564,-0.06652832,0
0.565,-0.06652832,0
0.566,-0.066833496,0
0.567,-0.067443848,0
0.568,-0.068664551,0
0.569,-0.069885254,0
0.57,-0.071411133,0
0.571,-0.072937012,0
0.572,-0.073852539,0
0.573,-0.074462891,0
0.574,-0.074768066,0
0.575,-0.074768066,0
0.576,-0.074157715,0
0.577,-0.073547363,0
0.578,-0.072937012,0
0.579,-0.071716309,0
0.58,-0.07019043,0
0.581,-0.068664551,0
0.582,-0.066833496,0
0.583,-0.064697266,0
0.584,-0.062561035,0
0.585,-0.060119629,0
0.586,-0.057678223,0
0.587,-0.055236816,0
0.588,-0.05279541,0
0.589,-0.050964355,0
0.59,-0.049743652,0
0.591,-0.048828125,0
0.592,-0.048217773,0
0.593,-0.047912598,0
0.594,-0.047607422,0
0.595,-0.047912598,0
0.596,-0.048217773,0
0.597,-0.048522949,0
0.598,-0.049133301,0
0.599,-0.049743652,0
0.6,-0.050354004,0
0.601,-0.050964355,0
0.602,-0.051574707,0
0.603,-0.052185059,0
0.604,-0.053100586,0
0.605,-0.054321289,0
0.606,-0.055236816,0
0.607,-0.05645752,0
0.608,-0.057678223,0
0.609,-0.05859375,0
0.61,-0.059814453,0
0.611,-0.06072998,0
0.612,-0.061645508,0
0.613,-0.063171387,0
0.614,-0.064697266,0
0.615,-0.066223145,0
0.616,-0.067749023,0
0.617,-0.068969727,0
0.618,-0.069885254,0
0.619,-0.070495605,0
0.62,-0.070800781,0
0.621,-0.070495605,0
0.622,-0.069885254,0
0.623,-0.068969727,0
0.624,-0.067443848,0
0.625,-0.065612793,0
0.626,-0.063781738,0
0.627,-0.061645508,0
0.628,-0.059814453,0
0.629,-0.057678223,0
0.63,-0.055541992,0
0.631,-0.053100586,0
0.632,-0.050964355,0
0.633,-0.049438477,0
0.634,-0.048522949,0
0.635,-0.048217773,0
0.636,-0.048522949,0
0.637,-0.048828125,0
0.638,-0.049133301,0
0.639,-0.049743652,0
0.64,-0.05065918,0
0.641,-0.051574707,0
0.642,-0.052490234,0
0.643,-0.053710938,0
0.644,-0.055236816,0
0.645,-0.05645752,0
0.646,-0.057983398,0
0.647,-0.059204102,0
0.648,-0.059814453,0
0.649,-0.060424805,0
0.65,-0.060424805,0
0.651,-0.059814453,0
0.652,-0.059204102,0
0.653,-0.057983398,0
0.654,-0.056152344,0
0.655,-0.054321289,0
0.656,-0.05279541,0
0.657,-0.051574707,0
0.658,-0.050354004,0
0.659,-0.049438477,0
0.66,-0.048217773,0
0.661,-0.04699707,0
0.662,-0.045776367,0
0.663,-0.04486084,0
0.664,-0.044250488,0
0.665,-0.043945313,0
0.666,-0.043945313,0
0.667,-0.043640137,0
0.668,-0.043334961,0
0.669,-0.042419434,0
0.67,-0.041809082,0
0.671,-0.04119873,0
0.672,-0.040893555,0
0.673,-0.041503906,0
0.674,-0.042419434,0
0.675,-0.043640137,0
0.676,-0.045166016,0
0.677,-0.046691895,0
0.678,-0.047912598,0
0.679,-0.049133301,0
0.68,-0.050354004,0
0.681,-0.051574707,0
0.682,-0.05279541,0
0.683,-0.054321289,0
0.684,-0.055541992,0
0.685,-0.056762695,0
0.686,-0.057678223,0
0.687,-0.058288574,0
0.688,-0.05859375,0
0.689,-0.058288574,0
0.69,-0.057983398,0
0.691,-0.057373047,0
0.692,-0.05645752,0
0.693,-0.055236816,0
0.694,-0.054016113,0
0.695,-0.05279541,0
0.696,-0.051269531,0
0.697,-0.050048828,0
0.698,-0.049133301,0
0.699,-0.048522949,0
0.7,-0.048217773,0
0.701,-0.047912598,0
0.702,-0.047912598,0
0.703,-0.048217773,0
0.704,-0.048522949,0
0.705,-0.048522949,0
0.706,-0.048522949,0
0.707,-0.048522949,0
0.708,-0.048217773,0
0.709,-0.047912598,0
0.71,-0.047607422,0
0.711,-0.04699707,0
0.712,-0.046691895,0
0.713,-0.046386719,0
0.714,-0.045776367,0
0.715,-0.045166016,0
0.716,-0.044555664,0
0.717,-0.043945313,0
0.718,-0.043640137,0
0.719,-0.043640137,0
0.72,-0.044250488,0
0.721,-0.044555664,0
0.722,-0.045471191,0
0.723,-0.046081543,0
0.724,-0.04699707,0
0.725,-0.047912598,0
0.726,-0.049133301,0
0.727,-0.050048828,0
0.728,-0.050964355,0
0.729,-0.051574707,0
0.73,-0.052185059,0
0.731,-0.05279541,0
0.732,-0.05279541,0
0.733,-0.053100586,0
0.734,-0.05279541,0
0.735,-0.05279541,0
0.736,-0.052490234,0
0.737,-0.051879883,0
0.738,-0.050964355,0
0.739,-0.049743652,0
0.74,-0.048217773,0
0.741,-0.046386719,0
0.742,-0.043945313,0
0.743,-0.041809082,0
0.744,-0.039367676,0
0.745,-0.037231445,0
0.746,-0.035095215,0
0.747,-0.033569336,0
0.748,-0.032653809,0
0.749,-0.032043457,0
0.75,-0.032043457,0
0.751,-0.032348633,0
0.752,-0.03326416,0
0.753,-0.034484863,0
0.754,-0.036010742,0
0.755,-0.038146973,0
0.756,-0.040893555,0
0.757,-0.043640137,0
0.758,-0.046691895,0
0.759,-0.049743652,0
0.76,-0.05279541,0
0.761,-0.055541992,0
0.762,-0.058288574,0
0.763,-0.060424805,0
0.764,-0.061950684,0
0.765,-0.062866211,0
0.766,-0.062866211,0
0.767,-0.062255859,0
0.768,-0.061035156,0
0.769,-0.059204102,0
0.77,-0.057373047,0
0.771,-0.054931641,0
0.772,-0.052490234,0
0.773,-0.049438477,0
0.774,-0.046386719,0
0.775,-0.043334961,0
0.776,-0.040283203,0
0.777,-0.037231445,0
0.778,-0.034484863,0
0.779,-0.032348633,0
0.78,-0.030212402,0
0.781,-0.028686523,0
0.782,-0.02746582,0
0.783,-0.026550293,0
0.784,-0.025634766,0
0.785,-0.025634766,0
0.786,-0.025634766,0
0.787,-0.025939941,0
0.788,-0.026550293,0
0.789,-0.027160645,0
0.79,-0.02746582,0
0.791,-0.028076172,0
0.792,-0.028381348,0
0.793,-0.028686523,0
0.794,-0.028991699,0
0.795,-0.029602051,0
0.796,-0.030212402,0
0.797,-0.03112793,0
0.798,-0.032043457,0
0.799,-0.032653809,0
0.8,-0.032958984,0
0.801,-0.032958984,0
0.802,-0.032958984,0
0.803,-0.032958984,0
0.804,-0.032653809,0
0.805,-0.032348633,0
0.806,-0.032043457,0
0.807,-0.031738281,0
0.808,-0.031433105,0
0.809,-0.03112793,0
0.81,-0.030822754,0
0.811,-0.030517578,0
0.812,-0.030212402,0
0.813,-0.029602051,0
0.814,-0.028686523,0
0.815,-0.027770996,0
0.816,-0.026855469,0
0.817,-0.025939941,0
0.818,-0.02532959,0
0.819,-0.024719238,0
0.82,-0.024414063,0
0.821,-0.024414063,0
0.822,-0.024108887,0
0.823,-0.024108887,0
0.824,-0.023803711,0
0.825,-0.024108887,0
0.826,-0.024108887,0
0.827,-0.024414063,0
0.828,-0.024414063,0
0.829,-0.024414063,0
0.83,-0.024414063,0
0.831,-0.024719238,0
0.832,-0.025024414,0
0.833,-0.025634766,0
0.834,-0.025939941,0
0.835,-0.026550293,0
0.836,-0.026855469,0
0.837,-0.026855469,0
0.838,-0.027160645,0
0.839,-0.026855469,0
0.84,-0.026855469,0
0.841,-0.026855469,0
0.842,-0.026855469,0
0.843,-0.026855469,0
0.844,-0.026855469,0
0.845,-0.026855469,0
0.846,-0.026550293,0
0.847,-0.025939941,0
0.848,-0.02532959,0
0.849,-0.024719238,0
0.85,-0.024414063,0
0.851,-0.023803711,0
0.852,-0.023193359,0
0.853,-0.022888184,0
0.854,-0.022583008,0
0.855,-0.022277832,0
0.856,-0.021972656,0
0.857,-0.022277832,0
0.858,-0.022583008,0
0.859,-0.023193359,0
0.86,-0.023803711,0
0.861,-0.024414063,0
0.862,-0.025024414,0
0.863,-0.025634766,0
0.864,-0.026245117,0
0.865,-0.026550293,0
0.866,-0.026855469,0
0.867,-0.026855469,0
0.868,-0.026855469,0
0.869,-0.026550293,0
0.87,-0.026245117,0
0.871,-0.02532959,0
0.872,-0.024414063,0
0.873,-0.023193359,0
0.874,-0.021972656,0
0.875,-0.020751953,0
0.876,-0.018920898,0
0.877,-0.017089844,0
0.878,-0.015258789,0
0.879,-0.013122559,0
0.88,-0.011291504,0
0.881,-0.009155273,0
0.882,-0.007019043,0
0.883,-0.004882813,0
0.884,-0.002746582,0
0.885,-0.000915527,0
0.886,0.000305176,0
0.887,0.001220703,0
0.888,0.001831055,0
0.889,0.002441406,0
0.89,0.003051758,0
0.891,0.003662109,0
0.892,0.004272461,0
0.893,0.004882813,0
0.894,0.004882813,0
0.895,0.005187988,0
0.896,0.005187988,0
0.897,0.005493164,0
0.898,0.00579834,0
0.899,0.006408691,0
0.9,0.007019043,0
0.901,0.008239746,0
0.902,0.009460449,0
0.903,0.010986328,0
0.904,0.012817383,0
0.905,0.014343262,0
0.906,0.016174316,0
0.907,0.01739502,0
0.908,0.018615723,0
0.909,0.01953125,0
0.91,0.020141602,0
0.911,0.021057129,0
0.912,0.021972656,0
0.913,0.023498535,0
0.914,0.024719238,0
0.915,0.026550293,0
0.916,0.028381348,0
0.917,0.030212402,0
0.918,0.032348633,0
0.919,0.034484863,0
0.92,0.03692627,0
0.921,0.039672852,0
0.922,0.042419434,0
0.923,0.045471191,0
0.924,0.048522949,0
0.925,0.051879883,0
0.926,0.055541992,0
0.927,0.059204102,0
0.928,0.062561035,0
0.929,0.065917969,0
0.93,0.068664551,0
0.931,0.071105957,0
0.932,0.072937012,0
0.933,0.074768066,0
0.934,0.076293945,0
0.935,0.077209473,0
0.936,0.077819824,0
0.937,0.078430176,0
0.938,0.079345703,0
0.939,0.079956055,0
0.94,0.080566406,0
0.941,0.080566406,0
0.942,0.080566406,0
0.943,0.079956055,0
0.944,0.079040527,0
0.945,0.077514648,0
0.946,0.075683594,0
0.947,0.073547363,0
0.948,0.071105957,0
0.949,0.068359375,0
0.95,0.065307617,0
0.951,0.062255859,0
0.952,0.05859375,0
0.953,0.055236816,0
0.954,0.052185059,0
0.955,0.049133301,0
0.956,0.046386719,0
0.957,0.043640137,0
0.958,0.040893555,0
0.959,0.038146973,0
0.96,0.035705566,0
0.961,0.033569336,0
0.962,0.031738281,0
0.963,0.030212402,0
0.964,0.028686523,0
0.965,0.02746582,0
0.966,0.026245117,0
0.967,0.024719238,0
0.968,0.023193359,0
0.969,0.021057129,0
0.97,0.018615723,0
0.971,0.015869141,0
0.972,0.012817383,0
0.973,0.009460449,0
0.974,0.00579834,0
0.975,0.00213623,0
0.976,-0.001525879,0
0.977,-0.005187988,0
0.978,-0.008850098,0
0.979,-0.012817383,0
0.98,-0.016479492,0
0.981,-0.020446777,0
0.982,-0.024108887,0
0.983,-0.027770996,0
0.984,-0.030822754,0
0.985,-0.033569336,0
0.986,-0.035705566,0
0.987,-0.037536621,0
0.988,-0.038757324,0
0.989,-0.039672852,0
0.99,-0.040283203,0
0.991,-0.040588379,0
0.992,-0.040588379,0
0.993,-0.039978027,0
0.994,-0.0390625,0
0.995,-0.037841797,0
0.996,-0.036315918,0
0.997,-0.034790039,0
0.998,-0.03326416,0
0.999,-0.031738281,0
1,-0.030212402,0
1.001,-0.028991699,0
1.002,-0.028381348,0
1.003,-0.028076172,0
1.004,-0.028381348,0
1.005,-0.029296875,0
1.006,-0.030517578,0
1.007,-0.032348633,0
1.008,-0.034790039,0
1.009,-0.037231445,0
1.01,-0.039672852,0
1.011,-0.042724609,0
1.012,-0.045776367,0
1.013,-0.049133301,0
1.014,-0.052185059,0
1.015,-0.054931641,0
1.016,-0.057067871,0
1.017,-0.058898926,0
1.018,-0.059814453,0
1.019,-0.06072998,0
1.02,-0.061035156,0
1.021,-0.061035156,0
1.022,-0.060424805,0
1.023,-0.059814453,0
1.024,-0.05859375,0
1.025,-0.057067871,0
1.026,-0.055236816,0
1.027,-0.053100586,0
1.028,-0.05065918,0
1.029,-0.048522949,0
1.03,-0.046081543,0
1.031,-0.044250488,0
1.032,-0.042724609,0
1.033,-0.04119873,0
1.034,-0.039978027,0
1.035,-0.038757324,0
1.036,-0.037841797,0
1.037,-0.037536621,0
1.038,-0.037536621,0
1.039,-0.037841797,0
1.04,-0.038452148,0
1.041,-0.039672852,0
1.042,-0.040893555,0
1.043,-0.042419434,0
1.044,-0.04486084,0
1.045,-0.047607422,0
1.046,-0.051269531,0
1.047,-0.055541992,0
1.048,-0.060424805,0
1.049,-0.065612793,0
1.05,-0.071411133,0
1.051,-0.077209473,0
1.052,-0.083618164,0
1.053,-0.090026855,0
1.054,-0.096740723,0
1.055,-0.10345459,0
1.056,-0.109863281,0
1.057,-0.115966797,0
1.058,-0.121459961,0
1.059,-0.126037598,0
1.06,-0.129394531,0
1.061,-0.131225586,0
1.062,-0.131530762,0
1.063,-0.130310059,0
1.064,-0.126953125,0
1.065,-0.121154785,0
1.066,-0.112915039,0
1.067,-0.101928711,0
1.068,-0.087585449,0
1.069,-0.07019043,0
1.07,-0.049133301,0
1.071,-0.024414063,0
1.072,0.004272461,0
1.073,0.036621094,0
1.074,0.07232666,0
1.075,0.111083984,0
1.076,0.152893066,0
1.077,0.19744873,0
1.078,0.244140625,0
1.079,0.29296875,0
1.08,0.343322754,0
1.081,0.394897461,0
1.082,0.447387695,0
1.083,0.500183105,0
1.084,0.552978516,0
1.085,0.604858398,0
1.086,0.655212402,0
1.087,0.703735352,0
1.088,0.749511719,0
1.089,0.792236328,0
1.09,0.832519531,0
1.091,0.869750977,0
1.092,0.904541016,0
1.093,0.936279297,0
1.094,0.964660645,0
1.095,0.988464355,0
1.096,1.00769043,0
1.097,1.02142334,0
1.098,1.029052734,0
1.099,1.029968262,0
1.1,1.02355957,0
1.101,1.010131836,0
1.102,0.989685059,0
1.103,0.961914063,0
1.104,0.927124023,0
1.105,0.885620117,0
1.106,0.837402344,0
1.107,0.783081055,0
1.108,0.722961426,0
1.109,0.657653809,0
1.11,0.588378906,0
1.111,0.516662598,0
1.112,0.444030762,0
1.113,0.371398926,0
1.114,0.300598145,0
1.115,0.232849121,0
1.116,0.168762207,0
1.117,0.109558105,0
1.118,0.055236816,0
1.119,0.007019043,0
1.12,-0.035095215,0
1.121,-0.070800781,0
1.122,-0.09979248,0
1.123,-0.121765137,0
1.124,-0.137939453,0
1.125,-0.148010254,0
1.126,-0.153503418,0
1.127,-0.154724121,0
1.128,-0.152587891,0
1.129,-0.148010254,0
1.13,-0.141296387,0
1.131,-0.133361816,0
1.132,-0.124816895,0
1.133,-0.115661621,0
1.134,-0.106811523,0
1.135,-0.098266602,0
1.136,-0.090332031,0
1.137,-0.083312988,0
1.138,-0.077209473,0
1.139,-0.07232666,0
1.14,-0.068664551,0
1.141,-0.066223145,0
1.142,-0.065002441,0
1.143,-0.065002441,0
1.144,-0.065612793,0
1.145,-0.067443848,0
1.146,-0.069885254,0
1.147,-0.072937012,0
1.148,-0.07598877,0
1.149,-0.079345703,0
1.15,-0.082397461,0
1.151,-0.085754395,0
1.152,-0.088500977,0
1.153,-0.091247559,0
1.154,-0.093383789,0
1.155,-0.095214844,0
1.156,-0.096130371,0
1.157,-0.097045898,0
1.158,-0.097045898,0
1.159,-0.096740723,0
1.16,-0.095825195,0
1.161,-0.094299316,0
1.162,-0.092163086,0
1.163,-0.090332031,0
1.164,-0.088195801,0
1.165,-0.086364746,0
1.166,-0.084533691,0
1.167,-0.082702637,0
1.168,-0.080871582,0
1.169,-0.079345703,0
1.17,-0.077819824,0
1.171,-0.076599121,0
1.172,-0.07598877,0
1.173,-0.07598877,0
1.174,-0.07598877,0
1.175,-0.076599121,0
1.176,-0.077514648,0
1.177,-0.078735352,0
1.178,-0.079956055,0
1.179,-0.080871582,0
1.18,-0.081787109,0
1.181,-0.082397461,0
1.182,-0.082702637,0
1.183,-0.082397461,0
1.184,-0.081481934,0
1.185,-0.08026123,0
1.186,-0.078430176,0
1.187,-0.076293945,0
1.188,-0.074157715,0
1.189,-0.072021484,0
1.19,-0.069885254,0
1.191,-0.067749023,0
1.192,-0.065612793,0
1.193,-0.063476563,0
1.194,-0.061645508,0
1.195,-0.059814453,0
1.196,-0.05859375,0
1.197,-0.057678223,0
1.198,-0.057373047,0
1.199,-0.057373047,0
1.2,-0.057678223,0
1.201,-0.058288574,0
1.202,-0.058898926,0
1.203,-0.060119629,0
1.204,-0.061035156,0
1.205,-0.061645508,0
1.206,-0.062255859,0
1.207,-0.062561035,0
1.208,-0.062561035,0
1.209,-0.062255859,0
1.21,-0.061340332,0
1.211,-0.060424805,0
1.212,-0.059204102,0
1.213,-0.057983398,0
1.214,-0.05645752,0
1.215,-0.054626465,0
1.216,-0.053100586,0
1.217,-0.050964355,0
1.218,-0.049133301,0
1.219,-0.047302246,0
1.22,-0.045776367,0
1.221,-0.043945313,0
1.222,-0.041809082,0
1.223,-0.039672852,0
1.224,-0.037841797,0
1.225,-0.036010742,0
1.226,-0.034484863,0
1.227,-0.032958984,0
1.228,-0.031433105,0
1.229,-0.030212402,0
1.23,-0.029296875,0
1.231,-0.028381348,0
1.232,-0.027160645,0
1.233,-0.025939941,0
1.234,-0.024719238,0
1.235,-0.023498535,0
1.236,-0.022583008,0
1.237,-0.02166748,0
1.238,-0.021057129,0
1.239,-0.020446777,0
1.24,-0.019836426,0
1.241,-0.018920898,0
1.242,-0.018005371,0
1.243,-0.016784668,0
1.244,-0.015258789,0
1.245,-0.013427734,0
1.246,-0.01159668,0
1.247,-0.009765625,0
1.248,-0.00793457,0
1.249,-0.006408691,0
1.25,-0.004882813,0
1.251,-0.003967285,0
1.252,-0.003356934,0
1.253,-0.003051758,0
1.254,-0.003051758,0
1.255,-0.002746582,0
1.256,-0.003051758,0
1.257,-0.003356934,0
1.258,-0.003967285,0
1.259,-0.005187988,0
1.26,-0.006408691,0
1.261,-0.007629395,0
1.262,-0.008850098,0
1.263,-0.009765625,0
1.264,-0.010375977,0
1.265,-0.010375977,0
1.266,-0.010070801,0
1.267,-0.009460449,0
1.268,-0.008239746,0
1.269,-0.006713867,0
1.27,-0.005187988,0
1.271,-0.003051758,0
1.272,-0.000305176,0
1.273,0.003051758,0
1.274,0.006408691,0
1.275,0.009460449,0
1.276,0.012817383,0
1.277,0.015563965,0
1.278,0.018310547,0
1.279,0.020751953,0
1.28,0.022583008,0
1.281,0.024108887,0
1.282,0.025939941,0
1.283,0.02746582,0
1.284,0.029296875,0
1.285,0.030822754,0
1.286,0.032043457,0
1.287,0.03326416,0
1.288,0.034484863,0
1.289,0.035400391,0
1.29,0.036315918,0
1.291,0.03692627,0
1.292,0.037536621,0
1.293,0.038146973,0
1.294,0.038757324,0
1.295,0.039978027,0
1.296,0.040893555,0
1.297,0.042419434,0
1.298,0.043945313,0
1.299,0.045166016,0
1.3,0.046691895,0
1.301,0.048217773,0
1.302,0.049438477,0
1.303,0.050964355,0
1.304,0.052490234,0
1.305,0.054016113,0
1.306,0.055541992,0
1.307,0.057373047,0
1.308,0.059204102,0
1.309,0.061340332,0
1.31,0.063171387,0
1.311,0.065002441,0
1.312,0.067138672,0
1.313,0.068969727,0
1.314,0.070800781,0
1.315,0.072631836,0
1.316,0.074462891,0
1.317,0.07598877,0
1.318,0.077514648,0
1.319,0.079345703,0
1.32,0.080871582,0
1.321,0.083007813,0
1.322,0.084838867,0
1.323,0.08605957,0
1.324,0.087280273,0
1.325,0.088500977,0
1.326,0.089416504,0
1.327,0.090637207,0
1.328,0.092163086,0
1.329,0.093383789,0
1.33,0.094604492,0
1.331,0.09552002,0
1.332,0.096435547,0
1.333,0.097045898,0
1.334,0.09765625,0
1.335,0.09765625,0
1.336,0.097351074,0
1.337,0.096740723,0
1.338,0.095825195,0
1.339,0.095214844,0
1.34,0.094604492,0
1.341,0.093994141,0
1.342,0.093078613,0
1.343,0.09185791,0
1.344,0.090942383,0
1.345,0.090332031,0
1.346,0.090026855,0
1.347,0.089416504,0
1.348,0.089111328,0
1.349,0.088500977,0
1.35,0.088195801,0
1.351,0.087585449,0
1.352,0.087280273,0
1.353,0.086975098,0
1.354,0.086975098,0
1.355,0.086975098,0
1.356,0.087280273,0
1.357,0.087585449,0
1.358,0.087890625,0
1.359,0.087890625,0
1.36,0.087890625,0
1.361,0.087280273,0
1.362,0.086364746,0
1.363,0.084838867,0
1.364,0.082702637,0
1.365,0.08026123,0
1.366,0.077209473,0
1.367,0.074157715,0
1.368,0.071105957,0
1.369,0.067749023,0
1.37,0.06439209,0
1.371,0.061035156,0
1.372,0.057067871,0
1.373,0.053100586,0
1.374,0.049133301,0
1.375,0.04486084,0
1.376,0.040588379,0
1.377,0.036315918,0
1.378,0.031738281,0
1.379,0.02746582,0
1.38,0.023193359,0
1.381,0.019226074,0
1.382,0.015563965,0
1.383,0.011901855,0
1.384,0.008544922,0
1.385,0.005187988,0
1.386,0.001831055,0
1.387,-0.001831055,0
1.388,-0.00579834,0
1.389,-0.010070801,0
1.39,-0.014648438,0
1.391,-0.019226074,0
1.392,-0.024108887,0
1.393,-0.028686523,0
1.394,-0.03326416,0
1.395,-0.037536621,0
1.396,-0.041503906,0
1.397,-0.045471191,0
1.398,-0.049133301,0
1.399,-0.05279541,0
1.4,-0.055847168,0
1.401,-0.05859375,0
1.402,-0.061035156,0
1.403,-0.063171387,0
1.404,-0.064697266,0
1.405,-0.065917969,0
1.406,-0.066833496,0
1.407,-0.068054199,0
1.408,-0.068969727,0
1.409,-0.069580078,0
1.41,-0.07019043,0
1.411,-0.070800781,0
1.412,-0.071716309,0
1.413,-0.072631836,0
1.414,-0.073852539,0
1.415,-0.075683594,0
1.416,-0.077209473,0
1.417,-0.079040527,0
1.418,-0.080871582,0
1.419,-0.082702637,0
1.42,-0.084533691,0
1.421,-0.08605957,0
1.422,-0.087280273,0
1.423,-0.088806152,0
1.424,-0.08972168,0
1.425,-0.090637207,0
1.426,-0.090942383,0
1.427,-0.090637207,0
1.428,-0.090026855,0
1.429,-0.08972168,0
1.43,-0.089416504,0
1.431,-0.089416504,0
1.432,-0.089111328,0
1.433,-0.088806152,0
1.434,-0.088500977,0
1.435,-0.087890625,0
1.436,-0.087585449,0
1.437,-0.086975098,0
1.438,-0.086669922,0
1.439,-0.086364746,0
1.44,-0.08605957,0
1.441,-0.085754395,0
1.442,-0.085449219,0
1.443,-0.085144043,0
1.444,-0.084533691,0
1.445,-0.083618164,0
1.446,-0.083007813,0
1.447,-0.082092285,0
1.448,-0.081176758,0
1.449,-0.079956055,0
1.45,-0.079040527,0
1.451,-0.078430176,0
1.452,-0.077819824,0
1.453,-0.077514648,0
1.454,-0.077514648,0
1.455,-0.077209473,0
1.456,-0.077209473,0
1.457,-0.077209473,0
1.458,-0.076904297,0
1.459,-0.076904297,0
1.46,-0.076599121,0
1.461,-0.076293945,0
1.462,-0.075683594,0
1.463,-0.074768066,0
1.464,-0.073852539,0
1.465,-0.07232666,0
1.466,-0.070495605,0
1.467,-0.068359375,0
1.468,-0.065612793,0
1.469,-0.062866211,0
1.47,-0.060119629,0
1.471,-0.057678223,0
1.472,-0.055847168,0
1.473,-0.054626465,0
1.474,-0.054016113,0
1.475,-0.054016113,0
1.476,-0.054626465,0
1.477,-0.055541992,0
1.478,-0.057067871,0
1.479,-0.059204102,0
1.48,-0.061645508,0
1.481,-0.06439209,0
1.482,-0.067138672,0
1.483,-0.07019043,0
1.484,-0.072937012,0
1.485,-0.075378418,0
1.486,-0.077209473,0
1.487,-0.078125,0
1.488,-0.078735352,0
1.489,-0.078430176,0
1.49,-0.077819824,0
1.491,-0.076599121,0
1.492,-0.075073242,0
1.493,-0.072937012,0
1.494,-0.07019043,0
1.495,-0.067443848,0
1.496,-0.06439209,0
1.497,-0.061645508,0
1.498,-0.05859375,0
1.499,-0.055847168,0
1.5,-0.053710938,0
1.501,-0.051879883,0
1.502,-0.05065918,0
1.503,-0.050354004,0
1.504,-0.050354004,0
1.505,-0.050964355,0
1.506,-0.051879883,0
1.507,-0.053100586,0
1.508,-0.054626465,0
1.509,-0.056152344,0
1.51,-0.057373047,0
1.511,-0.058898926,0
1.512,-0.060424805,0
1.513,-0.061645508,0
1.514,-0.062866211,0
1.515,-0.063781738,0
1.516,-0.06439209,0
1.517,-0.064697266,0
1.518,-0.064697266,0
1.519,-0.065002441,0
1.52,-0.064697266,0
1.521,-0.06439209,0
1.522,-0.063781738,0
1.523,-0.062561035,0
1.524,-0.061035156,0
1.525,-0.059204102,0
1.526,-0.057067871,0
1.527,-0.054931641,0
1.528,-0.053100586,0
1.529,-0.051269531,0
1.53,-0.049743652,0
1.531,-0.048217773,0
1.532,-0.04699707,0
1.533,-0.045776367,0
1.534,-0.044555664,0
1.535,-0.043334961,0
1.536,-0.042419434,0
1.537,-0.04119873,0
1.538,-0.039978027,0
1.539,-0.038757324,0
1.54,-0.037841797,0
1.541,-0.037231445,0
1.542,-0.037231445,0
1.543,-0.037536621,0
1.544,-0.038146973,0
1.545,-0.038452148,0
1.546,-0.038757324,0
1.547,-0.0390625,0
1.548,-0.039367676,0
1.549,-0.039672852,0
1.55,-0.040283203,0
1.551,-0.040893555,0
1.552,-0.041503906,0
1.553,-0.042114258,0
1.554,-0.042724609,0
1.555,-0.042724609,0
1.556,-0.042724609,0
1.557,-0.042724609,0
1.558,-0.042114258,0
1.559,-0.041503906,0
1.56,-0.040588379,0
1.561,-0.039672852,0
1.562,-0.038757324,0
1.563,-0.037536621,0
1.564,-0.036621094,0
1.565,-0.036010742,0
1.566,-0.035095215,0
1.567,-0.034484863,0
1.568,-0.033874512,0
1.569,-0.033874512,0
1.57,-0.033874512,0
1.571,-0.034179688,0
1.572,-0.034790039,0
1.573,-0.035400391,0
1.574,-0.036315918,0
1.575,-0.037231445,0
1.576,-0.038146973,0
1.577,-0.038757324,0
1.578,-0.039367676,0
1.579,-0.039978027,0
1.58,-0.040283203,0
1.581,-0.040588379,0
1.582,-0.040893555,0
1.583,-0.040283203,0
1.584,-0.039672852,0
1.585,-0.038452148,0
1.586,-0.037231445,0
1.587,-0.035400391,0
1.588,-0.03326416,0
1.589,-0.031433105,0
1.59,-0.029296875,0
1.591,-0.027770996,0
1.592,-0.026550293,0
1.593,-0.025634766,0
1.594,-0.02532959,0
1.595,-0.025634766,0
1.596,-0.025939941,0
1.597,-0.026855469,0
1.598,-0.028076172,0
1.599,-0.029602051,0
1.6,-0.031433105,0
1.601,-0.03326416,0
1.602,-0.035705566,0
1.603,-0.038146973,0
1.604,-0.040588379,0
1.605,-0.043029785,0
1.606,-0.045166016,0
1.607,-0.047302246,0
1.608,-0.049133301,0
1.609,-0.05065918,0
1.61,-0.051879883,0
1.611,-0.05279541,0
1.612,-0.053100586,0
1.613,-0.053100586,0
1.614,-0.052490234,0
1.615,-0.051574707,0
1.616,-0.050354004,0
1.617,-0.049438477,0
1.618,-0.048522949,0
1.619,-0.047607422,0
1.62,-0.04699707,0
1.621,-0.046081543,0
1.622,-0.045471191,0
1.623,-0.04486084,0
1.624,-0.044555664,0
1.625,-0.044555664,0
1.626,-0.04486084,0
1.627,-0.04486084,0
1.628,-0.04486084,0
1.629,-0.044555664,0
1.63,-0.044250488,0
1.631,-0.043945313,0
1.632,-0.043334961,0
1.633,-0.043029785,0
1.634,-0.042724609,0
1.635,-0.042724609,0
1.636,-0.042419434,0
1.637,-0.042419434,0
1.638,-0.042114258,0
1.639,-0.041809082,0
1.64,-0.041503906,0
1.641,-0.041503906,0
1.642,-0.041503906,0
1.643,-0.041503906,0
1.644,-0.041809082,0
1.645,-0.042724609,0
1.646,-0.043640137,0
1.647,-0.045166016,0
1.648,-0.046691895,0
1.649,-0.047912598,0
1.65,-0.049133301,0
1.651,-0.050048828,0
1.652,-0.05065918,0
1.653,-0.051269531,0
1.654,-0.051574707,0
1.655,-0.051269531,0
1.656,-0.050964355,0
1.657,-0.050048828,0
1.658,-0.049133301,0
1.659,-0.047912598,0
1.66,-0.046691895,0
1.661,-0.04486084,0
1.662,-0.043029785,0
1.663,-0.04119873,0
1.664,-0.0390625,0
1.665,-0.037231445,0
1.666,-0.035095215,0
1.667,-0.033569336,0
1.668,-0.032653809,0
1.669,-0.032043457,0
1.67,-0.032043457,0
1.671,-0.032348633,0
1.672,-0.032653809,0
1.673,-0.032958984,0
1.674,-0.033569336,0
1.675,-0.034484863,0
1.676,-0.035095215,0
1.677,-0.035705566,0
1.678,-0.036315918,0
1.679,-0.03692627,0
1.68,-0.037536621,0
1.681,-0.037841797,0
1.682,-0.038452148,0
1.683,-0.038757324,0
1.684,-0.038757324,0
1.685,-0.038757324,0
1.686,-0.038452148,0
1.687,-0.038452148,0
1.688,-0.038146973,0
1.689,-0.037841797,0
1.69,-0.037841797,0
1.691,-0.037536621,0
1.692,-0.037536621,0
1.693,-0.037231445,0
1.694,-0.03692627,0
1.695,-0.03692627,0
1.696,-0.037231445,0
1.697,-0.037841797,0
1.698,-0.038146973,0
1.699,-0.038452148,0
1.7,-0.038452148,0
1.701,-0.038452148,0
1.702,-0.038146973,0
1.703,-0.037841797,0
1.704,-0.037536621,0
1.705,-0.037536621,0
1.706,-0.037536621,0
1.707,-0.037536621,0
1.708,-0.037231445,0
1.709,-0.03692627,0
1.71,-0.036315918,0
1.711,-0.036010742,0
1.712,-0.035400391,0
1.713,-0.035095215,0
1.714,-0.034790039,0
1.715,-0.034790039,0
1.716,-0.034790039,0
1.717,-0.034484863,0
1.718,-0.034179688,0
1.719,-0.033874512,0
1.72,-0.03326416,0
1.721,-0.032958984,0
1.722,-0.032958984,0
1.723,-0.032653809,0
1.724,-0.032653809,0
1.725,-0.032958984,0
1.726,-0.032958984,0
1.727,-0.032653809,0
1.728,-0.032348633,0
1.729,-0.032348633,0
1.73,-0.032043457,0
1.731,-0.031738281,0
1.732,-0.031738281,0
1.733,-0.031738281,0
1.734,-0.031433105,0
1.735,-0.031433105,0
1.736,-0.03112793,0
1.737,-0.03112793,0
1.738,-0.03112793,0
1.739,-0.03112793,0
1.74,-0.03112793,0
1.741,-0.03112793,0
1.742,-0.030822754,0
1.743,-0.030822754,0
1.744,-0.030822754,0
1.745,-0.03112793,0
1.746,-0.03112793,0
1.747,-0.03112793,0
1.748,-0.030822754,0
1.749,-0.030517578,0
1.75,-0.030212402,0
1.751,-0.029602051,0
1.752,-0.029602051,0
1.753,-0.029296875,0
1.754,-0.029296875,0
1.755,-0.028991699,0
1.756,-0.028381348,0
1.757,-0.028076172,0
1.758,-0.02746582,0
1.759,-0.027160645,0
1.76,-0.026550293,0
1.761,-0.026550293,0
1.762,-0.026855469,0
1.763,-0.02746582,0
1.764,-0.028076172,0
1.765,-0.028991699,0
1.766,-0.029602051,0
1.767,-0.030212402,0
1.768,-0.030517578,0
1.769,-0.030517578,0
1.77,-0.030517578,0
1.771,-0.030517578,0
1.772,-0.030517578,0
1.773,-0.030212402,0
1.774,-0.029907227,0
1.775,-0.029296875,0
1.776,-0.027770996,0
1.777,-0.025939941,0
1.778,-0.023498535,0
1.779,-0.020751953,0
1.78,-0.017700195,0
1.781,-0.014648438,0
1.782,-0.010986328,0
1.783,-0.007629395,0
1.784,-0.003967285,0
1.785,-0.000305176,0
1.786,0.003051758,0
1.787,0.006408691,0
1.788,0.009460449,0
1.789,0.011901855,0
1.79,0.014038086,0
1.791,0.015869141,0
1.792,0.017089844,0
1.793,0.01739502,0
1.794,0.01739502,0
1.795,0.016479492,0
1.796,0.014953613,0
1.797,0.013122559,0
1.798,0.01159668,0
1.799,0.010070801,0
1.8,0.008544922,0
1.801,0.007019043,0
1.802,0.005187988,0
1.803,0.003967285,0
1.804,0.003051758,0
1.805,0.002441406,0
1.806,0.00213623,0
1.807,0.00213623,0
1.808,0.002441406,0
1.809,0.003356934,0
1.81,0.004577637,0
1.811,0.006713867,0
1.812,0.009155273,0
1.813,0.012207031,0
1.814,0.015563965,0
1.815,0.019226074,0
1.816,0.022583008,0
1.817,0.026245117,0
1.818,0.029907227,0
1.819,0.03326416,0
1.82,0.036315918,0
1.821,0.039672852,0
1.822,0.043029785,0
1.823,0.046691895,0
1.824,0.050354004,0
1.825,0.054016113,0
1.826,0.057678223,0
1.827,0.061035156,0
1.828,0.06439209,0
1.829,0.067138672,0
1.83,0.069885254,0
1.831,0.072021484,0
1.832,0.073852539,0
1.833,0.075378418,0
1.834,0.076904297,0
1.835,0.078430176,0
1.836,0.079345703,0
1.837,0.08026123,0
1.838,0.081176758,0
1.839,0.081481934,0
1.84,0.081787109,0
1.841,0.081481934,0
1.842,0.081176758,0
1.843,0.080566406,0
1.844,0.079956055,0
1.845,0.079040527,0
1.846,0.077819824,0
1.847,0.076599121,0
1.848,0.075073242,0
1.849,0.073242188,0
1.85,0.071105957,0
1.851,0.068969727,0
1.852,0.06652832,0
1.853,0.063781738,0
1.854,0.061035156,0
1.855,0.058288574,0
1.856,0.055847168,0
1.857,0.053405762,0
1.858,0.051269531,0
1.859,0.049133301,0
1.86,0.046691895,0
1.861,0.044250488,0
1.862,0.041809082,0
1.863,0.038757324,0
1.864,0.035400391,0
1.865,0.032043457,0
1.866,0.028686523,0
1.867,0.025634766,0
1.868,0.021972656,0
1.869,0.018310547,0
1.87,0.014343262,0
1.871,0.010070801,0
1.872,0.005493164,0
1.873,0.000915527,0
1.874,-0.003051758,0
1.875,-0.007019043,0
1.876,-0.010681152,0
1.877,-0.014343262,0
1.878,-0.018005371,0
1.879,-0.02166748,0
1.88,-0.02532959,0
1.881,-0.028381348,0
1.882,-0.03112793,0
1.883,-0.033569336,0
1.884,-0.035400391,0
1.885,-0.03692627,0
1.886,-0.038146973,0
1.887,-0.038757324,0
1.888,-0.039672852,0
1.889,-0.040283203,0
1.89,-0.040893555,0
1.891,-0.04119873,0
1.892,-0.041503906,0
1.893,-0.041809082,0
1.894,-0.041809082,0
1.895,-0.041809082,0
1.896,-0.041503906,0
1.897,-0.04119873,0
1.898,-0.040283203,0
1.899,-0.0390625,0
1.9,-0.037841797,0
1.901,-0.03692627,0
1.902,-0.036315918,0
1.903,-0.036315918,0
1.904,-0.036621094,0
1.905,-0.036621094,0
1.906,-0.03692627,0
1.907,-0.03692627,0
1.908,-0.03692627,0
1.909,-0.037231445,0
1.91,-0.037231445,0
1.911,-0.037841797,0
1.912,-0.038146973,0
1.913,-0.038757324,0
1.914,-0.039367676,0
1.915,-0.039978027,0
1.916,-0.040588379,0
1.917,-0.041503906,0
1.918,-0.042724609,0
1.919,-0.043945313,0
1.92,-0.045471191,0
1.921,-0.046691895,0
1.922,-0.047912598,0
1.923,-0.048828125,0
1.924,-0.049743652,0
1.925,-0.050964355,0
1.926,-0.051879883,0
1.927,-0.05279541,0
1.928,-0.053710938,0
1.929,-0.054626465,0
1.93,-0.055236816,0
1.931,-0.055847168,0
1.932,-0.056152344,0
1.933,-0.056152344,0
1.934,-0.055847168,0
1.935,-0.055541992,0
1.936,-0.054626465,0
1.937,-0.053405762,0
1.938,-0.051574707,0
1.939,-0.050048828,0
1.94,-0.048522949,0
1.941,-0.047302246,0
1.942,-0.046386719,0
1.943,-0.045776367,0
1.944,-0.045471191,0
1.945,-0.045776367,0
1.946,-0.046691895,0
1.947,-0.048522949,0
1.948,-0.050964355,0
1.949,-0.054626465,0
1.95,-0.059204102,0
1.951,-0.064697266,0
1.952,-0.071411133,0
1.953,-0.079345703,0
1.954,-0.088500977,0
1.955,-0.098266602,0
1.956,-0.108642578,0
1.957,-0.11932373,0
1.958,-0.130310059,0
1.959,-0.140991211,0
1.96,-0.151062012,0
1.961,-0.160217285,0
1.962,-0.168151855,0
1.963,-0.174255371,0
1.964,-0.178527832,0
1.965,-0.180053711,0
1.966,-0.179138184,0
1.967,-0.175170898,0
1.968,-0.16784668,0
1.969,-0.156860352,0
1.97,-0.142211914,0
1.971,-0.123901367,0
1.972,-0.101013184,0
1.973,-0.074157715,0
1.974,-0.043029785,0
1.975,-0.007629395,0
1.976,0.031433105,0
1.977,0.074157715,0
1.978,0.120239258,0
1.979,0.169677734,0
1.98,0.221557617,0
1.981,0.275878906,0
1.982,0.332336426,0
1.983,0.390014648,0
1.984,0.448913574,0
1.985,0.508117676,0
1.986,0.567321777,0
1.987,0.625305176,0
1.988,0.682067871,0
1.989,0.73638916,0
1.99,0.787658691,0
1.991,0.836181641,0
1.992,0.881347656,0
1.993,0.922851563,0
1.994,0.960998535,0
1.995,0.995178223,0
1.996,1.024169922,0
1.997,1.047668457,0
1.998,1.064758301,0
1.999,1.075744629,0
2,1.079711914,0
2.001,1.076660156,0
2.002,1.065979004,0
2.003,1.047363281,0
2.004,1.021118164,0
2.005,0.987548828,0
2.006,0.946655273,0
2.007,0.899353027,0
2.008,0.84564209,0
2.009,0.786437988,66.51884701
2.01,0.722045898,66.51884701
2.011,0.653381348,66.51884701
2.012,0.581970215,66.51884701
2.013,0.508728027,66.51884701
2.014,0.435180664,66.51884701
2.015,0.361938477,66.51884701
2.016,0.29083252,66.51884701
2.017,0.22277832,66.51884701
2.018,0.158996582,66.51884701
2.019,0.100097656,66.51884701
2.02,0.047607422,66.51884701
2.021,0.001220703,66.51884701
2.022,-0.038757324,66.51884701
2.023,-0.07232666,66.51884701
2.024,-0.09979248,66.51884701
2.025,-0.121459961,66.51884701
2.026,-0.137634277,66.51884701
2.027,-0.148620605,66.51884701
2.028,-0.154724121,66.51884701
2.029,-0.157165527,66.51884701
2.03,-0.156555176,66.51884701
2.031,-0.153198242,66.51884701
2.032,-0.148010254,66.51884701
2.033,-0.141296387,66.51884701
2.034,-0.134277344,66.51884701
2.035,-0.126647949,66.51884701
2.036,-0.119018555,66.51884701
2.037,-0.111694336,66.51884701
2.038,-0.104675293,66.51884701
2.039,-0.098571777,66.51884701
2.04,-0.093078613,66.51884701
2.041,-0.088195801,66.51884701
2.042,-0.084228516,66.51884701
2.043,-0.081176758,66.51884701
2.044,-0.079345703,66.51884701
2.045,-0.078430176,66.51884701
2.046,-0.078430176,66.51884701
2.047,-0.079345703,66.51884701
2.048,-0.080871582,66.51884701
2.049,-0.083007813,66.51884701
2.05,-0.085449219,66.51884701
2.051,-0.088195801,66.51884701
2.052,-0.090637207,66.51884701
2.053,-0.093078613,66.51884701
2.054,-0.095214844,66.51884701
2.055,-0.097045898,66.51884701
2.056,-0.098266602,66.51884701
2.057,-0.098876953,66.51884701
2.058,-0.099487305,66.51884701
2.059,-0.099487305,66.51884701
2.06,-0.099182129,66.51884701
2.061,-0.098571777,66.51884701
2.062,-0.097351074,66.51884701
2.063,-0.096130371,66.51884701
2.064,-0.094604492,66.51884701
2.065,-0.093078613,66.51884701
2.066,-0.09185791,66.51884701
2.067,-0.090637207,66.51884701
2.068,-0.08972168,66.51884701
2.069,-0.08972168,66.51884701
2.07,-0.08972168,66.51884701
2.071,-0.090332031,66.51884701
2.072,-0.090942383,66.51884701
2.073,-0.091552734,66.51884701
2.074,-0.092163086,66.51884701
2.075,-0.092773438,66.51884701
2.076,-0.092468262,66.51884701
2.077,-0.09185791,66.51884701
2.078,-0.091247559,66.51884701
2.079,-0.090026855,66.51884701
2.08,-0.089111328,66.51884701
2.081,-0.087890625,66.51884701
2.082,-0.08605957,66.51884701
2.083,-0.084228516,66.51884701
2.084,-0.082397461,66.51884701
2.085,-0.08026123,66.51884701
2.086,-0.078125,66.51884701
2.087,-0.076293945,66.51884701
2.088,-0.074157715,66.51884701
2.089,-0.072631836,66.51884701
2.09,-0.071105957,66.51884701
2.091,-0.069885254,66.51884701
2.092,-0.069274902,66.51884701
2.093,-0.068664551,66.51884701
2.094,-0.068054199,66.51884701
2.095,-0.068054199,66.51884701
2.096,-0.067749023,66.51884701
2.097,-0.067443848,66.51884701
2.098,-0.067138672,66.51884701
2.099,-0.06652832,66.51884701
2.1,-0.065612793,66.51884701
2.101,-0.064697266,66.51884701
2.102,-0.063781738,66.51884701
2.103,-0.062866211,66.51884701
2.104,-0.062255859,66.51884701
2.105,-0.061950684,66.51884701
2.106,-0.061340332,66.51884701
2.107,-0.061035156,66.51884701
2.108,-0.060424805,66.51884701
2.109,-0.059814453,66.51884701
2.11,-0.059204102,66.51884701
2.111,-0.058288574,66.51884701
2.112,-0.057373047,66.51884701
2.113,-0.056152344,66.51884701
2.114,-0.054931641,66.51884701
2.115,-0.053710938,66.51884701
2.116,-0.052490234,66.51884701
2.117,-0.051574707,66.51884701
2.118,-0.050354004,66.51884701
2.119,-0.049438477,66.51884701
2.12,-0.048522949,66.51884701
2.121,-0.047302246,66.51884701
2.122,-0.045776367,66.51884701
2.123,-0.044250488,66.51884701
2.124,-0.042419434,66.51884701
2.125,-0.040893555,66.51884701
2.126,-0.039367676,66.51884701
2.127,-0.037841797,66.51884701
2.128,-0.03692627,66.51884701
2.129,-0.035705566,66.51884701
2.13,-0.034790039,66.51884701
2.131,-0.034179688,66.51884701
2.132,-0.032958984,66.51884701
2.133,-0.032043457,66.51884701
2.134,-0.030822754,66.51884701
2.135,-0.029296875,66.51884701
2.136,-0.027770996,66.51884701
2.137,-0.026245117,66.51884701
2.138,-0.024719238,66.51884701
2.139,-0.022888184,66.51884701
2.14,-0.021057129,66.51884701
2.141,-0.019226074,66.51884701
2.142,-0.01739502,66.51884701
2.143,-0.015869141,66.51884701
2.144,-0.014648438,66.51884701
2.145,-0.014038086,66.51884701
2.146,-0.013427734,66.51884701
2.147,-0.013122559,66.51884701
2.148,-0.013427734,66.51884701
2.149,-0.01373291,66.51884701
2.15,-0.014038086,66.51884701
2.151,-0.014343262,66.51884701
2.152,-0.014648438,66.51884701
2.153,-0.014953613,66.51884701
2.154,-0.014953613,66.51884701
2.155,-0.015258789,66.51884701
2.156,-0.015258789,66.51884701
2.157,-0.015258789,66.51884701
2.158,-0.014953613,66.51884701
2.159,-0.014953613,66.51884701
2.16,-0.014343262,66.51884701
2.161,-0.013122559,66.51884701
2.162,-0.011901855,66.51884701
2.163,-0.010070801,66.51884701
2.164,-0.00793457,66.51884701
2.165,-0.00579834,66.51884701
2.166,-0.003662109,66.51884701
2.167,-0.001220703,66.51884701
2.168,0.001220703,66.51884701
2.169,0.003662109,66.51884701
2.17,0.005493164,66.51884701
2.171,0.007324219,66.51884701
2.172,0.008850098,66.51884701
2.173,0.010375977,66.51884701
2.174,0.01159668,66.51884701
2.175,0.013122559,66.51884701
2.176,0.014343262,66.51884701
2.177,0.015563965,66.51884701
2.178,0.016784668,66.51884701
2.179,0.017700195,66.51884701
2.18,0.018920898,66.51884701
2.181,0.020141602,66.51884701
2.182,0.020751953,66.51884701
2.183,0.021362305,66.51884701
2.184,0.021972656,66.51884701
2.185,0.022583008,66.51884701
2.186,0.023193359,66.51884701
2.187,0.023803711,66.51884701
2.188,0.024414063,66.51884701
2.189,0.02532959,66.51884701
2.19,0.025939941,66.51884701
2.191,0.026245117,66.51884701
2.192,0.026855469,66.51884701
2.193,0.02746582,66.51884701
2.194,0.027770996,66.51884701
2.195,0.028381348,66.51884701
2.196,0.028686523,66.51884701
2.197,0.029296875,66.51884701
2.198,0.030212402,66.51884701
2.199,0.031433105,66.51884701
2.2,0.032653809,66.51884701
2.201,0.034484863,66.51884701
2.202,0.036010742,66.51884701
2.203,0.038146973,66.51884701
2.204,0.040283203,66.51884701
2.205,0.043029785,66.51884701
2.206,0.045776367,66.51884701
2.207,0.048828125,66.51884701
2.208,0.052185059,66.51884701
2.209,0.055236816,66.51884701
2.21,0.057983398,66.51884701
2.211,0.06072998,66.51884701
2.212,0.063171387,66.51884701
2.213,0.065612793,66.51884701
2.214,0.067749023,66.51884701
2.215,0.069580078,66.51884701
2.216,0.071411133,66.51884701
2.217,0.073242188,66.51884701
2.218,0.074768066,66.51884701
2.219,0.076293945,66.51884701
2.22,0.077819824,66.51884701
2.221,0.079040527,66.51884701
2.222,0.08026123,66.51884701
2.223,0.081481934,66.51884701
2.224,0.082702637,66.51884701
2.225,0.084228516,66.51884701
2.226,0.085754395,66.51884701
2.227,0.087585449,66.51884701
2.228,0.089111328,66.51884701
2.229,0.090942383,66.51884701
2.23,0.092468262,66.51884701
2.231,0.093383789,66.51884701
2.232,0.094299316,66.51884701
2.233,0.094909668,66.51884701
2.234,0.095214844,66.51884701
2.235,0.095214844,66.51884701
2.236,0.095214844,66.51884701
2.237,0.094909668,66.51884701
2.238,0.094299316,66.51884701
2.239,0.093383789,66.51884701
2.24,0.09185791,66.51884701
2.241,0.090026855,66.51884701
2.242,0.088195801,66.51884701
2.243,0.08605957,66.51884701
2.244,0.083618164,66.51884701
2.245,0.081481934,66.51884701
2.246,0.079040527,66.51884701
2.247,0.076599121,66.51884701
2.248,0.074462891,66.51884701
2.249,0.072937012,66.51884701
2.25,0.071411133,66.51884701
2.251,0.07019043,66.51884701
2.252,0.069885254,66.51884701
2.253,0.069580078,66.51884701
2.254,0.069885254,66.51884701
2.255,0.070495605,66.51884701
2.256,0.070495605,66.51884701
2.257,0.070495605,66.51884701
2.258,0.07019043,66.51884701
2.259,0.069885254,66.51884701
2.26,0.069885254,66.51884701
2.261,0.069885254,66.51884701
2.262,0.069885254,66.51884701
2.263,0.07019043,66.51884701
2.264,0.070800781,66.51884701
2.265,0.071105957,66.51884701
2.266,0.071105957,66.51884701
2.267,0.070495605,66.51884701
2.268,0.069274902,66.51884701
2.269,0.067443848,66.51884701
2.27,0.065002441,66.51884701
2.271,0.062255859,66.51884701
2.272,0.059204102,66.51884701
2.273,0.055847168,66.51884701
2.274,0.052490234,66.51884701
2.275,0.048828125,66.51884701
2.276,0.04486084,66.51884701
2.277,0.040893555,66.51884701
2.278,0.03692627,66.51884701
2.279,0.032348633,66.51884701
2.28,0.02746582,66.51884701
2.281,0.022277832,66.51884701
2.282,0.016784668,66.51884701
2.283,0.011291504,66.51884701
2.284,0.006103516,66.51884701
2.285,0.000610352,66.51884701
2.286,-0.004577637,66.51884701
2.287,-0.009460449,66.51884701
2.288,-0.014343262,66.51884701
2.289,-0.018615723,66.51884701
2.29,-0.022277832,66.51884701
2.291,-0.025939941,66.51884701
2.292,-0.029296875,66.51884701
2.293,-0.032348633,66.51884701
2.294,-0.035095215,66.51884701
2.295,-0.037536621,66.51884701
2.296,-0.039978027,66.51884701
2.297,-0.042419434,66.51884701
2.298,-0.04486084,66.51884701
2.299,-0.04699707,66.51884701
2.3,-0.049133301,66.51884701
2.301,-0.051269531,66.51884701
2.302,-0.053100586,66.51884701
2.303,-0.054931641,66.51884701
2.304,-0.05645752,66.51884701
2.305,-0.057983398,66.51884701
2.306,-0.059204102,66.51884701
2.307,-0.06072998,66.51884701
2.308,-0.062561035,66.51884701
2.309,-0.064697266,66.51884701
2.31,-0.066833496,66.51884701
2.311,-0.068969727,66.51884701
2.312,-0.071105957,66.51884701
2.313,-0.072937012,66.51884701
2.314,-0.074768066,66.51884701
2.315,-0.07598877,66.51884701
2.316,-0.077514648,66.51884701
2.317,-0.078735352,66.51884701
2.318,-0.08026123,66.51884701
2.319,-0.081481934,66.51884701
2.32,-0.083007813,66.51884701
2.321,-0.084228516,66.51884701
2.322,-0.085449219,66.51884701
2.323,-0.086669922,66.51884701
2.324,-0.087585449,66.51884701
2.325,-0.088195801,66.51884701
2.326,-0.089111328,66.51884701
2.327,-0.08972168,66.51884701
2.328,-0.090332031,66.51884701
2.329,-0.090637207,66.51884701
2.33,-0.090942383,66.51884701
2.331,-0.090942383,66.51884701
2.332,-0.090637207,66.51884701
2.333,-0.090332031,66.51884701
2.334,-0.090026855,66.51884701
2.335,-0.089416504,66.51884701
2.336,-0.088806152,66.51884701
2.337,-0.088195801,66.51884701
2.338,-0.087585449,66.51884701
2.339,-0.087280273,66.51884701
2.34,-0.086669922,66.51884701
2.341,-0.08605957,66.51884701
2.342,-0.085449219,66.51884701
2.343,-0.084838867,66.51884701
2.344,-0.084228516,66.51884701
2.345,-0.083618164,66.51884701
2.346,-0.083618164,66.51884701
2.347,-0.083618164,66.51884701
2.348,-0.083618164,66.51884701
2.349,-0.083312988,66.51884701
2.35,-0.083312988,66.51884701
2.351,-0.083312988,66.51884701
2.352,-0.083618164,66.51884701
2.353,-0.084228516,66.51884701
2.354,-0.084533691,66.51884701
2.355,-0.084838867,66.51884701
2.356,-0.085144043,66.51884701
2.357,-0.084838867,66.51884701
2.358,-0.084228516,66.51884701
2.359,-0.083312988,66.51884701
2.36,-0.082397461,66.51884701
2.361,-0.081481934,66.51884701
2.362,-0.080871582,66.51884701
2.363,-0.08026123,66.51884701
2.364,-0.079345703,66.51884701
2.365,-0.078430176,66.51884701
2.366,-0.077209473,66.51884701
2.367,-0.076293945,66.51884701
2.368,-0.075378418,66.51884701
2.369,-0.074462891,66.51884701
2.37,-0.073852539,66.51884701
2.371,-0.073242188,66.51884701
2.372,-0.072937012,66.51884701
2.373,-0.072631836,66.51884701
2.374,-0.07232666,66.51884701
2.375,-0.071716309,66.51884701
2.376,-0.071105957,66.51884701
2.377,-0.07019043,66.51884701
2.378,-0.069274902,66.51884701
2.379,-0.068664551,66.51884701
2.38,-0.067443848,66.51884701
2.381,-0.06652832,66.51884701
2.382,-0.065612793,66.51884701
2.383,-0.064697266,66.51884701
2.384,-0.063781738,66.51884701
2.385,-0.063171387,66.51884701
2.386,-0.062561035,66.51884701
2.387,-0.061950684,66.51884701
2.388,-0.061645508,66.51884701
2.389,-0.061340332,66.51884701
2.39,-0.061340332,66.51884701
2.391,-0.061340332,66.51884701
2.392,-0.061950684,66.51884701
2.393,-0.062561035,66.51884701
2.394,-0.063171387,66.51884701
2.395,-0.063781738,66.51884701
2.396,-0.064086914,66.51884701
2.397,-0.06439209,66.51884701
2.398,-0.06439209,66.51884701
2.399,-0.064086914,66.51884701
2.4,-0.063476563,66.51884701
2.401,-0.062866211,66.51884701
2.402,-0.061950684,66.51884701
2.403,-0.061340332,66.51884701
2.404,-0.060424805,66.51884701
2.405,-0.059509277,66.51884701
2.406,-0.058288574,66.51884701
2.407,-0.057067871,66.51884701
2.408,-0.056152344,66.51884701
2.409,-0.054931641,66.51884701
2.41,-0.054016113,66.51884701
2.411,-0.053405762,66.51884701
2.412,-0.053100586,66.51884701
2.413,-0.053405762,66.51884701
2.414,-0.054016113,66.51884701
2.415,-0.054931641,66.51884701
2.416,-0.055847168,66.51884701
2.417,-0.057067871,66.51884701
2.418,-0.057983398,66.51884701
2.419,-0.059204102,66.51884701
2.42,-0.060424805,66.51884701
2.421,-0.061645508,66.51884701
2.422,-0.062561035,66.51884701
2.423,-0.063171387,66.51884701
2.424,-0.063476563,66.51884701
2.425,-0.063171387,66.51884701
2.426,-0.062561035,66.51884701
2.427,-0.061645508,66.51884701
2.428,-0.06072998,66.51884701
2.429,-0.059814453,66.51884701
2.43,-0.058898926,66.51884701
2.431,-0.057983398,66.51884701
2.432,-0.057067871,66.51884701
2.433,-0.055847168,66.51884701
2.434,-0.054931641,66.51884701
2.435,-0.054321289,66.51884701
2.436,-0.053405762,66.51884701
2.437,-0.05279541,66.51884701
2.438,-0.052185059,66.51884701
2.439,-0.051574707,66.51884701
2.44,-0.050964355,66.51884701
2.441,-0.050964355,66.51884701
2.442,-0.051269531,66.51884701
2.443,-0.051574707,66.51884701
2.444,-0.052185059,66.51884701
2.445,-0.053100586,66.51884701
2.446,-0.054016113,66.51884701
2.447,-0.054931641,66.51884701
2.448,-0.055541992,66.51884701
2.449,-0.055847168,66.51884701
2.45,-0.055541992,66.51884701
2.451,-0.054931641,66.51884701
2.452,-0.054016113,66.51884701
2.453,-0.053710938,66.51884701
2.454,-0.053100586,66.51884701
2.455,-0.05279541,66.51884701
2.456,-0.052490234,66.51884701
2.457,-0.052490234,66.51884701
2.458,-0.052490234,66.51884701
2.459,-0.052490234,66.51884701
2.46,-0.052490234,66.51884701
2.461,-0.052185059,66.51884701
2.462,-0.051879883,66.51884701
2.463,-0.051269531,66.51884701
2.464,-0.05065918,66.51884701
2.465,-0.050048828,66.51884701
2.466,-0.049133301,66.51884701
2.467,-0.048522949,66.51884701
2.468,-0.048217773,66.51884701
2.469,-0.047607422,66.51884701
2.47,-0.047302246,66.51884701
2.471,-0.046691895,66.51884701
2.472,-0.046081543,66.51884701
2.473,-0.045776367,66.51884701
2.474,-0.045471191,66.51884701
2.475,-0.045166016,66.51884701
2.476,-0.045166016,66.51884701
2.477,-0.04486084,66.51884701
2.478,-0.045166016,66.51884701
2.479,-0.045471191,66.51884701
2.48,-0.046081543,66.51884701
2.481,-0.04699707,66.51884701
2.482,-0.047607422,66.51884701
2.483,-0.048217773,66.51884701
2.484,-0.048828125,66.51884701
2.485,-0.049133301,66.51884701
2.486,-0.049133301,66.51884701
2.487,-0.049133301,66.51884701
2.488,-0.048522949,66.51884701
2.489,-0.048217773,66.51884701
2.49,-0.047607422,66.51884701
2.491,-0.04699707,66.51884701
2.492,-0.046691895,66.51884701
2.493,-0.046386719,66.51884701
2.494,-0.045776367,66.51884701
2.495,-0.045471191,66.51884701
2.496,-0.04486084,66.51884701
2.497,-0.044555664,66.51884701
2.498,-0.044250488,66.51884701
2.499,-0.044555664,66.51884701
2.5,-0.04486084,66.51884701
2.501,-0.045471191,66.51884701
2.502,-0.046386719,66.51884701
2.503,-0.047607422,66.51884701
2.504,-0.048828125,66.51884701
2.505,-0.050048828,66.51884701
2.506,-0.051269531,66.51884701
2.507,-0.052185059,66.51884701
2.508,-0.053100586,66.51884701
2.509,-0.053710938,66.51884701
2.51,-0.054321289,66.51884701
2.511,-0.054931641,66.51884701
2.512,-0.055236816,66.51884701
2.513,-0.055541992,66.51884701
2.514,-0.055847168,66.51884701
2.515,-0.055541992,66.51884701
2.516,-0.055236816,66.51884701
2.517,-0.054931641,66.51884701
2.518,-0.054016113,66.51884701
2.519,-0.053405762,66.51884701
2.52,-0.05279541,66.51884701
2.521,-0.052185059,66.51884701
2.522,-0.051574707,66.51884701
2.523,-0.050964355,66.51884701
2.524,-0.05065918,66.51884701
2.525,-0.050354004,66.51884701
2.526,-0.050354004,66.51884701
2.527,-0.05065918,66.51884701
2.528,-0.050964355,66.51884701
2.529,-0.051269531,66.51884701
2.53,-0.051574707,66.51884701
2.531,-0.052185059,66.51884701
2.532,-0.05279541,66.51884701
2.533,-0.053100586,66.51884701
2.534,-0.053710938,66.51884701
2.535,-0.054321289,66.51884701
2.536,-0.054931641,66.51884701
2.537,-0.055541992,66.51884701
2.538,-0.055847168,66.51884701
2.539,-0.055847168,66.51884701
2.54,-0.055541992,66.51884701
2.541,-0.054931641,66.51884701
2.542,-0.054016113,66.51884701
2.543,-0.05279541,66.51884701
2.544,-0.051574707,66.51884701
2.545,-0.050354004,66.51884701
2.546,-0.049133301,66.51884701
2.547,-0.047607422,66.51884701
2.548,-0.046386719,66.51884701
2.549,-0.045166016,66.51884701
2.55,-0.043945313,66.51884701
2.551,-0.042724609,66.51884701
2.552,-0.041809082,66.51884701
2.553,-0.04119873,66.51884701
2.554,-0.040588379,66.51884701
2.555,-0.040283203,66.51884701
2.556,-0.040283203,66.51884701
2.557,-0.040283203,66.51884701
2.558,-0.040283203,66.51884701
2.559,-0.040283203,66.51884701
2.56,-0.040283203,66.51884701
2.561,-0.040588379,66.51884701
2.562,-0.041503906,66.51884701
2.563,-0.042419434,66.51884701
2.564,-0.043334961,66.51884701
2.565,-0.044555664,66.51884701
2.566,-0.045776367,66.51884701
2.567,-0.046691895,66.51884701
2.568,-0.047302246,66.51884701
2.569,-0.047912598,66.51884701
2.57,-0.048217773,66.51884701
2.571,-0.048828125,66.51884701
2.572,-0.049133301,66.51884701
2.573,-0.049743652,66.51884701
2.574,-0.050048828,66.51884701
2.575,-0.05065918,66.51884701
2.576,-0.050964355,66.51884701
2.577,-0.050964355,66.51884701
2.578,-0.050964355,66.51884701
2.579,-0.050354004,66.51884701
2.58,-0.049438477,66.51884701
2.581,-0.048828125,66.51884701
2.582,-0.047912598,66.51884701
2.583,-0.047302246,66.51884701
2.584,-0.04699707,66.51884701
2.585,-0.04699707,66.51884701
2.586,-0.04699707,66.51884701
2.587,-0.04699707,66.51884701
2.588,-0.047302246,66.51884701
2.589,-0.047302246,66.51884701
2.59,-0.04699707,66.51884701
2.591,-0.046691895,66.51884701
2.592,-0.046386719,66.51884701
2.593,-0.046081543,66.51884701
2.594,-0.045776367,66.51884701
2.595,-0.045776367,66.51884701
2.596,-0.045471191,66.51884701
2.597,-0.045166016,66.51884701
2.598,-0.04486084,66.51884701
2.599,-0.044555664,66.51884701
2.6,-0.044555664,66.51884701
2.601,-0.044555664,66.51884701
2.602,-0.044555664,66.51884701
2.603,-0.04486084,66.51884701
2.604,-0.04486084,66.51884701
2.605,-0.04486084,66.51884701
2.606,-0.045166016,66.51884701
2.607,-0.045166016,66.51884701
2.608,-0.045776367,66.51884701
2.609,-0.046691895,66.51884701
2.61,-0.047607422,66.51884701
2.611,-0.048522949,66.51884701
2.612,-0.049438477,66.51884701
2.613,-0.049438477,66.51884701
2.614,-0.049438477,66.51884701
2.615,-0.048828125,66.51884701
2.616,-0.048217773,66.51884701
2.617,-0.047302246,66.51884701
2.618,-0.046081543,66.51884701
2.619,-0.04486084,66.51884701
2.62,-0.043334961,66.51884701
2.621,-0.041809082,66.51884701
2.622,-0.039978027,66.51884701
2.623,-0.038452148,66.51884701
2.624,-0.037231445,66.51884701
2.625,-0.036010742,66.51884701
2.626,-0.035095215,66.51884701
2.627,-0.034179688,66.51884701
2.628,-0.033569336,66.51884701
2.629,-0.032653809,66.51884701
2.63,-0.032348633,66.51884701
2.631,-0.031738281,66.51884701
2.632,-0.031433105,66.51884701
2.633,-0.03112793,66.51884701
2.634,-0.03112793,66.51884701
2.635,-0.030822754,66.51884701
2.636,-0.030517578,66.51884701
2.637,-0.029907227,66.51884701
2.638,-0.029296875,66.51884701
2.639,-0.028381348,66.51884701
2.64,-0.02746582,66.51884701
2.641,-0.026550293,66.51884701
2.642,-0.025634766,66.51884701
2.643,-0.024719238,66.51884701
2.644,-0.023803711,66.51884701
2.645,-0.022888184,66.51884701
2.646,-0.022277832,66.51884701
2.647,-0.021972656,66.51884701
2.648,-0.02166748,66.51884701
2.649,-0.021972656,66.51884701
2.65,-0.022277832,66.51884701
2.651,-0.022888184,66.51884701
2.652,-0.023803711,66.51884701
2.653,-0.025024414,66.51884701
2.654,-0.026245117,66.51884701
2.655,-0.027770996,66.51884701
2.656,-0.029296875,66.51884701
2.657,-0.030822754,66.51884701
2.658,-0.032043457,66.51884701
2.659,-0.032958984,66.51884701
2.66,-0.03326416,66.51884701
2.661,-0.03326416,66.51884701
2.662,-0.032653809,66.51884701
2.663,-0.032043457,66.51884701
2.664,-0.031433105,66.51884701
2.665,-0.030822754,66.51884701
2.666,-0.030212402,66.51884701
2.667,-0.029296875,66.51884701
2.668,-0.028381348,66.51884701
2.669,-0.02746582,66.51884701
2.67,-0.026245117,66.51884701
2.671,-0.024719238,66.51884701
2.672,-0.022888184,66.51884701
2.673,-0.021057129,66.51884701
2.674,-0.01953125,66.51884701
2.675,-0.018310547,66.51884701
2.676,-0.017089844,66.51884701
2.677,-0.015869141,66.51884701
2.678,-0.014953613,66.51884701
2.679,-0.014343262,66.51884701
2.68,-0.014038086,66.51884701
2.681,-0.014343262,66.51884701
2.682,-0.014343262,66.51884701
2.683,-0.014648438,66.51884701
2.684,-0.014953613,66.51884701
2.685,-0.015563965,66.51884701
2.686,-0.016479492,66.51884701
2.687,-0.017700195,66.51884701
2.688,-0.019226074,66.51884701
2.689,-0.021362305,66.51884701
2.69,-0.023498535,66.51884701
2.691,-0.025634766,66.51884701
2.692,-0.028076172,66.51884701
2.693,-0.030212402,66.51884701
2.694,-0.032043457,66.51884701
2.695,-0.033874512,66.51884701
2.696,-0.035705566,66.51884701
2.697,-0.03692627,66.51884701
2.698,-0.037536621,66.51884701
2.699,-0.037536621,66.51884701
2.7,-0.037231445,66.51884701
2.701,-0.036621094,66.51884701
2.702,-0.035705566,66.51884701
2.703,-0.034484863,66.51884701
2.704,-0.033569336,66.51884701
2.705,-0.032043457,66.51884701
2.706,-0.030517578,66.51884701
2.707,-0.028991699,66.51884701
2.708,-0.02746582,66.51884701
2.709,-0.026245117,66.51884701
2.71,-0.025024414,66.51884701
2.711,-0.023803711,66.51884701
2.712,-0.023193359,66.51884701
2.713,-0.022888184,66.51884701
2.714,-0.022583008,66.51884701
2.715,-0.022277832,66.51884701
2.716,-0.021972656,66.51884701
2.717,-0.02166748,66.51884701
2.718,-0.021057129,66.51884701
2.719,-0.020751953,66.51884701
2.72,-0.020141602,66.51884701
2.721,-0.01953125,66.51884701
2.722,-0.018615723,66.51884701
2.723,-0.017700195,66.51884701
2.724,-0.016479492,66.51884701
2.725,-0.014953613,66.51884701
2.726,-0.013427734,66.51884701
2.727,-0.011291504,66.51884701
2.728,-0.008850098,66.51884701
2.729,-0.006408691,66.51884701
2.73,-0.003662109,66.51884701
2.731,-0.001220703,66.51884701
2.732,0.001525879,66.51884701
2.733,0.003967285,66.51884701
2.734,0.006408691,66.51884701
2.735,0.008544922,66.51884701
2.736,0.010375977,66.51884701
2.737,0.012207031,66.51884701
2.738,0.013427734,66.51884701
2.739,0.014648438,66.51884701
2.74,0.015563965,66.51884701
2.741,0.016479492,66.51884701
2.742,0.017089844,66.51884701
2.743,0.017700195,66.51884701
2.744,0.018310547,66.51884701
2.745,0.018615723,66.51884701
2.746,0.018920898,66.51884701
2.747,0.019226074,66.51884701
2.748,0.01953125,66.51884701
2.749,0.019836426,66.51884701
2.75,0.020446777,66.51884701
2.751,0.021362305,66.51884701
2.752,0.022277832,66.51884701
2.753,0.023193359,66.51884701
2.754,0.024719238,66.51884701
2.755,0.026550293,66.51884701
2.756,0.028381348,66.51884701
2.757,0.030517578,66.51884701
2.758,0.032653809,66.51884701
2.759,0.035095215,66.51884701
2.76,0.037841797,66.51884701
2.761,0.040893555,66.51884701
2.762,0.044250488,66.51884701
2.763,0.047912598,66.51884701
2.764,0.051574707,66.51884701
2.765,0.055236816,66.51884701
2.766,0.058898926,66.51884701
2.767,0.062255859,66.51884701
2.768,0.065612793,66.51884701
2.769,0.068359375,66.51884701
2.77,0.071105957,66.51884701
2.771,0.073242188,66.51884701
2.772,0.075073242,66.51884701
2.773,0.076904297,66.51884701
2.774,0.078430176,66.51884701
2.775,0.079650879,66.51884701
2.776,0.080566406,66.51884701
2.777,0.081176758,66.51884701
2.778,0.081481934,66.51884701
2.779,0.081481934,66.51884701
2.78,0.080871582,66.51884701
2.781,0.079956055,66.51884701
2.782,0.078430176,66.51884701
2.783,0.076904297,66.51884701
2.784,0.075073242,66.51884701
2.785,0.073242188,66.51884701
2.786,0.071411133,66.51884701
2.787,0.069580078,66.51884701
2.788,0.067749023,66.51884701
2.789,0.065917969,66.51884701
2.79,0.064086914,66.51884701
2.791,0.061950684,66.51884701
2.792,0.059509277,66.51884701
2.793,0.057067871,66.51884701
2.794,0.054016113,66.51884701
2.795,0.050964355,66.51884701
2.796,0.047912598,66.51884701
2.797,0.04486084,66.51884701
2.798,0.041809082,66.51884701
2.799,0.0390625,66.51884701
2.8,0.036315918,66.51884701
2.801,0.033874512,66.51884701
2.802,0.03112793,66.51884701
2.803,0.028076172,66.51884701
2.804,0.024719238,66.51884701
2.805,0.021362305,66.51884701
2.806,0.018005371,66.51884701
2.807,0.014343262,66.51884701
2.808,0.010681152,66.51884701
2.809,0.007019043,66.51884701
2.81,0.003662109,66.51884701
2.811,0.000305176,66.51884701
2.812,-0.002746582,66.51884701
2.813,-0.005493164,66.51884701
2.814,-0.008239746,66.51884701
2.815,-0.010986328,66.51884701
2.816,-0.013427734,66.51884701
2.817,-0.015563965,66.51884701
2.818,-0.017700195,66.51884701
2.819,-0.019226074,66.51884701
2.82,-0.020446777,66.51884701
2.821,-0.021362305,66.51884701
2.822,-0.022277832,66.51884701
2.823,-0.022583008,66.51884701
2.824,-0.023193359,66.51884701
2.825,-0.023803711,66.51884701
2.826,-0.024414063,66.51884701
2.827,-0.025024414,66.51884701
2.828,-0.025939941,66.51884701
2.829,-0.027160645,66.51884701
2.83,-0.028686523,66.51884701
2.831,-0.030212402,66.51884701
2.832,-0.031738281,66.51884701
2.833,-0.03326416,66.51884701
2.834,-0.034790039,66.51884701
2.835,-0.036010742,66.51884701
2.836,-0.037231445,66.51884701
2.837,-0.038452148,66.51884701
2.838,-0.039367676,66.51884701
2.839,-0.040283203,66.51884701
2.84,-0.040893555,66.51884701
2.841,-0.041503906,66.51884701
2.842,-0.041809082,66.51884701
2.843,-0.041809082,66.51884701
2.844,-0.041809082,66.51884701
2.845,-0.04119873,66.51884701
2.846,-0.040588379,66.51884701
2.847,-0.039672852,66.51884701
2.848,-0.038757324,66.51884701
2.849,-0.037841797,66.51884701
2.85,-0.037536621,66.51884701
2.851,-0.037231445,66.51884701
2.852,-0.037536621,66.51884701
2.853,-0.038146973,66.51884701
2.854,-0.038452148,66.51884701
2.855,-0.0390625,66.51884701
2.856,-0.039672852,66.51884701
2.857,-0.040893555,66.51884701
2.858,-0.042419434,66.51884701
2.859,-0.044250488,66.51884701
2.86,-0.046386719,66.51884701
2.861,-0.048522949,66.51884701
2.862,-0.050964355,66.51884701
2.863,-0.053100586,66.51884701
2.864,-0.055541992,66.51884701
2.865,-0.057373047,66.51884701
2.866,-0.059204102,66.51884701
2.867,-0.06072998,66.51884701
2.868,-0.061950684,66.51884701
2.869,-0.062561035,66.51884701
2.87,-0.063171387,66.51884701
2.871,-0.063171387,66.51884701
2.872,-0.062866211,66.51884701
2.873,-0.061950684,66.51884701
2.874,-0.060119629,66.51884701
2.875,-0.058288574,66.51884701
2.876,-0.056152344,66.51884701
2.877,-0.054016113,66.51884701
2.878,-0.052185059,66.51884701
2.879,-0.05065918,66.51884701
2.88,-0.049438477,66.51884701
2.881,-0.048828125,66.51884701
2.882,-0.048522949,66.51884701
2.883,-0.048522949,66.51884701
2.884,-0.049133301,66.51884701
2.885,-0.050048828,66.51884701
2.886,-0.051574707,66.51884701
2.887,-0.054321289,66.51884701
2.888,-0.058288574,66.51884701
2.889,-0.063171387,66.51884701
2.89,-0.069580078,66.51884701
2.891,-0.076599121,66.51884701
2.892,-0.084228516,66.51884701
2.893,-0.092468262,66.51884701
2.894,-0.101013184,66.51884701
2.895,-0.109558105,66.51884701
2.896,-0.118408203,66.51884701
2.897,-0.126647949,66.51884701
2.898,-0.134277344,66.51884701
2.899,-0.140991211,66.51884701
2.9,-0.146789551,66.51884701
2.901,-0.151062012,66.51884701
2.902,-0.15411377,66.51884701
2.903,-0.155029297,66.51884701
2.904,-0.153808594,66.51884701
2.905,-0.149841309,66.51884701
2.906,-0.142822266,66.51884701
2.907,-0.132141113,66.51884701
2.908,-0.117797852,66.51884701
2.909,-0.099487305,66.51884701
2.91,-0.077514648,66.51884701
2.911,-0.051879883,66.51884701
2.912,-0.022583008,66.51884701
2.913,0.010681152,66.51884701
2.914,0.047912598,66.51884701
2.915,0.088806152,66.51884701
2.916,0.133361816,66.51884701
2.917,0.181274414,66.51884701
2.918,0.23223877,66.51884701
2.919,0.285339355,66.51884701
2.92,0.33996582,66.51884701
2.921,0.396118164,66.51884701
2.922,0.452880859,66.51884701
2.923,0.50994873,66.51884701
2.924,0.567016602,66.51884701
2.925,0.62286377,66.51884701
2.926,0.677185059,66.51884701
2.927,0.729064941,66.51884701
2.928,0.778808594,66.51884701
2.929,0.825195313,66.51884701
2.93,0.868835449,66.51884701
2.931,0.909118652,66.51884701
2.932,0.946350098,66.51884701
2.933,0.980224609,66.51884701
2.934,1.010437012,66.51884701
2.935,1.035766602,66.51884701
2.936,1.056213379,66.51884701
2.937,1.071166992,66.51884701
2.938,1.08001709,66.51884701
2.939,1.082458496,66.51884701
2.94,1.078186035,66.51884701
2.941,1.066894531,66.51884701
2.942,1.04888916,66.51884701
2.943,1.023254395,66.51884701
2.944,0.99029541,66.51884701
2.945,0.950317383,66.51884701
2.946,0.903320313,66.51884701
2.947,0.849914551,63.96588486
2.948,0.790710449,63.96588486
2.949,0.726318359,63.96588486
2.95,0.657043457,63.96588486
2.951,0.584106445,63.96588486
2.952,0.509338379,63.96588486
2.953,0.433959961,63.96588486
2.954,0.35949707,63.96588486
2.955,0.28717041,63.96588486
2.956,0.217895508,63.96588486
2.957,0.152893066,63.96588486
2.958,0.092773438,63.96588486
2.959,0.038146973,63.96588486
2.96,-0.010375977,63.96588486
2.961,-0.052490234,63.96588486
2.962,-0.087585449,63.96588486
2.963,-0.116271973,63.96588486
2.964,-0.138244629,63.96588486
2.965,-0.153808594,63.96588486
2.966,-0.163269043,63.96588486
2.967,-0.168151855,63.96588486
2.968,-0.168762207,63.96588486
2.969,-0.166015625,63.96588486
2.97,-0.160827637,63.96588486
2.971,-0.153808594,63.96588486
2.972,-0.145263672,63.96588486
2.973,-0.136108398,63.96588486
2.974,-0.126647949,63.96588486
2.975,-0.1171875,63.96588486
2.976,-0.108337402,63.96588486
2.977,-0.099487305,63.96588486
2.978,-0.09185791,63.96588486
2.979,-0.084838867,63.96588486
2.98,-0.079040527,63.96588486
2.981,-0.075073242,63.96588486
2.982,-0.072937012,63.96588486
2.983,-0.072021484,63.96588486
2.984,-0.072631836,63.96588486
2.985,-0.073852539,63.96588486
2.986,-0.075683594,63.96588486
2.987,-0.078125,63.96588486
2.988,-0.080566406,63.96588486
2.989,-0.083007813,63.96588486
2.99,-0.08605957,63.96588486
2.991,-0.089416504,63.96588486
2.992,-0.092773438,63.96588486
2.993,-0.096130371,63.96588486
2.994,-0.099182129,63.96588486
2.995,-0.101623535,63.96588486
2.996,-0.104064941,63.96588486
2.997,-0.105895996,63.96588486
2.998,-0.107116699,63.96588486
2.999,-0.108032227,63.96588486
3,-0.108947754,63.96588486
3.001,-0.10925293,63.96588486
3.002,-0.10925293,63.96588486
3.003,-0.108947754,63.96588486
3.004,-0.108337402,63.96588486
3.005,-0.107727051,63.96588486
3.006,-0.107116699,63.96588486
3.007,-0.106201172,63.96588486
3.008,-0.105285645,63.96588486
3.009,-0.104370117,63.96588486
3.01,-0.103149414,63.96588486
3.011,-0.101928711,63.96588486
3.012,-0.100402832,63.96588486
3.013,-0.098571777,63.96588486
3.014,-0.096435547,63.96588486
3.015,-0.094299316,63.96588486
3.016,-0.09185791,63.96588486
3.017,-0.08972168,63.96588486
3.018,-0.087280273,63.96588486
3.019,-0.084838867,63.96588486
3.02,-0.082702637,63.96588486
3.021,-0.08026123,63.96588486
3.022,-0.077819824,63.96588486
3.023,-0.075378418,63.96588486
3.024,-0.072937012,63.96588486
3.025,-0.07019043,63.96588486
3.026,-0.067749023,63.96588486
3.027,-0.065307617,63.96588486
3.028,-0.063171387,63.96588486
3.029,-0.061645508,63.96588486
3.03,-0.060119629,63.96588486
3.031,-0.059509277,63.96588486
3.032,-0.059204102,63.96588486
3.033,-0.059509277,63.96588486
3.034,-0.060119629,63.96588486
3.035,-0.061340332,63.96588486
3.036,-0.062561035,63.96588486
3.037,-0.064086914,63.96588486
3.038,-0.065917969,63.96588486
3.039,-0.067443848,63.96588486
3.04,-0.068969727,63.96588486
3.041,-0.070495605,63.96588486
3.042,-0.07232666,63.96588486
3.043,-0.073852539,63.96588486
3.044,-0.074768066,63.96588486
3.045,-0.075683594,63.96588486
3.046,-0.076293945,63.96588486
3.047,-0.076599121,63.96588486
3.048,-0.076599121,63.96588486
3.049,-0.07598877,63.96588486
3.05,-0.075073242,63.96588486
3.051,-0.073852539,63.96588486
3.052,-0.07232666,63.96588486
3.053,-0.070800781,63.96588486
3.054,-0.068664551,63.96588486
3.055,-0.06652832,63.96588486
3.056,-0.063781738,63.96588486
3.057,-0.061035156,63.96588486
3.058,-0.057983398,63.96588486
3.059,-0.054931641,63.96588486
3.06,-0.051574707,63.96588486
3.061,-0.048217773,63.96588486
3.062,-0.045166016,63.96588486
3.063,-0.042114258,63.96588486
3.064,-0.039367676,63.96588486
3.065,-0.03692627,63.96588486
3.066,-0.035095215,63.96588486
3.067,-0.033874512,63.96588486
3.068,-0.032958984,63.96588486
3.069,-0.032348633,63.96588486
3.07,-0.031738281,63.96588486
3.071,-0.031738281,63.96588486
3.072,-0.032043457,63.96588486
3.073,-0.032348633,63.96588486
3.074,-0.03326416,63.96588486
3.075,-0.034484863,63.96588486
3.076,-0.035705566,63.96588486
3.077,-0.03692627,63.96588486
3.078,-0.038146973,63.96588486
3.079,-0.0390625,63.96588486
3.08,-0.039672852,63.96588486
3.081,-0.039978027,63.96588486
3.082,-0.039978027,63.96588486
3.083,-0.039367676,63.96588486
3.084,-0.038452148,63.96588486
3.085,-0.03692627,63.96588486
3.086,-0.035400391,63.96588486
3.087,-0.033569336,63.96588486
3.088,-0.031433105,63.96588486
3.089,-0.029296875,63.96588486
3.09,-0.027160645,63.96588486
3.091,-0.024719238,63.96588486
3.092,-0.022277832,63.96588486
3.093,-0.01953125,63.96588486
3.094,-0.017089844,63.96588486
3.095,-0.014648438,63.96588486
3.096,-0.012817383,63.96588486
3.097,-0.010681152,63.96588486
3.098,-0.008850098,63.96588486
3.099,-0.007019043,63.96588486
3.1,-0.005187988,63.96588486
3.101,-0.003051758,63.96588486
3.102,-0.001220703,63.96588486
3.103,0.000610352,63.96588486
3.104,0.002441406,63.96588486
3.105,0.004272461,63.96588486
3.106,0.006408691,63.96588486
3.107,0.008850098,63.96588486
3.108,0.010681152,63.96588486
3.109,0.012207031,63.96588486
3.11,0.01373291,63.96588486
3.111,0.014648438,63.96588486
3.112,0.015869141,63.96588486
3.113,0.01739502,63.96588486
3.114,0.018615723,63.96588486
3.115,0.01953125,63.96588486
3.116,0.020141602,63.96588486
3.117,0.020446777,63.96588486
3.118,0.020751953,63.96588486
3.119,0.020751953,63.96588486
3.12,0.020446777,63.96588486
3.121,0.020446777,63.96588486
3.122,0.020446777,63.96588486
3.123,0.020751953,63.96588486
3.124,0.021362305,63.96588486
3.125,0.021972656,63.96588486
3.126,0.022888184,63.96588486
3.127,0.024108887,63.96588486
3.128,0.02532959,63.96588486
3.129,0.026245117,63.96588486
3.13,0.02746582,63.96588486
3.131,0.028686523,63.96588486
3.132,0.029907227,63.96588486
3.133,0.03112793,63.96588486
3.134,0.032653809,63.96588486
3.135,0.034179688,63.96588486
3.136,0.035400391,63.96588486
3.137,0.036621094,63.96588486
3.138,0.038146973,63.96588486
3.139,0.039672852,63.96588486
3.14,0.040893555,63.96588486
3.141,0.042419434,63.96588486
3.142,0.043640137,63.96588486
3.143,0.04486084,63.96588486
3.144,0.046081543,63.96588486
3.145,0.047912598,63.96588486
3.146,0.049743652,63.96588486
3.147,0.052185059,63.96588486
3.148,0.054626465,63.96588486
3.149,0.057373047,63.96588486
3.15,0.060119629,63.96588486
3.151,0.062561035,63.96588486
3.152,0.065307617,63.96588486
3.153,0.067749023,63.96588486
3.154,0.07019043,63.96588486
3.155,0.072631836,63.96588486
3.156,0.074462891,63.96588486
3.157,0.07598877,63.96588486
3.158,0.076904297,63.96588486
3.159,0.077819824,63.96588486
3.16,0.078125,63.96588486
3.161,0.078125,63.96588486
3.162,0.077514648,63.96588486
3.163,0.077209473,63.96588486
3.164,0.076599121,63.96588486
3.165,0.076293945,63.96588486
3.166,0.07598877,63.96588486
3.167,0.076293945,63.96588486
3.168,0.077209473,63.96588486
3.169,0.078125,63.96588486
3.17,0.079040527,63.96588486
3.171,0.079956055,63.96588486
3.172,0.080871582,63.96588486
3.173,0.081481934,63.96588486
3.174,0.082702637,63.96588486
3.175,0.08392334,63.96588486
3.176,0.085144043,63.96588486
3.177,0.086669922,63.96588486
3.178,0.087585449,63.96588486
3.179,0.088806152,63.96588486
3.18,0.089416504,63.96588486
3.181,0.08972168,63.96588486
3.182,0.08972168,63.96588486
3.183,0.089111328,63.96588486
3.184,0.088195801,63.96588486
3.185,0.086975098,63.96588486
3.186,0.085449219,63.96588486
3.187,0.08392334,63.96588486
3.188,0.082092285,63.96588486
3.189,0.080566406,63.96588486
3.19,0.079040527,63.96588486
3.191,0.077209473,63.96588486
3.192,0.075683594,63.96588486
3.193,0.074157715,63.96588486
3.194,0.072631836,63.96588486
3.195,0.071411133,63.96588486
3.196,0.069885254,63.96588486
3.197,0.068664551,63.96588486
3.198,0.067138672,63.96588486
3.199,0.065917969,63.96588486
3.2,0.065002441,63.96588486
3.201,0.064086914,63.96588486
3.202,0.063781738,63.96588486
3.203,0.063171387,63.96588486
3.204,0.062255859,63.96588486
3.205,0.061340332,63.96588486
3.206,0.059814453,63.96588486
3.207,0.057983398,63.96588486
3.208,0.055847168,63.96588486
3.209,0.053710938,63.96588486
3.21,0.050964355,63.96588486
3.211,0.048522949,63.96588486
3.212,0.045776367,63.96588486
3.213,0.042724609,63.96588486
3.214,0.039672852,63.96588486
3.215,0.036315918,63.96588486
3.216,0.032348633,63.96588486
3.217,0.028381348,63.96588486
3.218,0.024108887,63.96588486
3.219,0.019836426,63.96588486
3.22,0.015563965,63.96588486
3.221,0.01159668,63.96588486
3.222,0.007324219,63.96588486
3.223,0.003051758,63.96588486
3.224,-0.001525879,63.96588486
3.225,-0.005493164,63.96588486
3.226,-0.009460449,63.96588486
3.227,-0.013427734,63.96588486
3.228,-0.016784668,63.96588486
3.229,-0.020446777,63.96588486
3.23,-0.023803711,63.96588486
3.231,-0.02746582,63.96588486
3.232,-0.03112793,63.96588486
3.233,-0.034484863,63.96588486
3.234,-0.037536621,63.96588486
3.235,-0.040893555,63.96588486
3.236,-0.043945313,63.96588486
3.237,-0.047607422,63.96588486
3.238,-0.050964355,63.96588486
3.239,-0.054321289,63.96588486
3.24,-0.057373047,63.96588486
3.241,-0.060424805,63.96588486
3.242,-0.062866211,63.96588486
3.243,-0.065612793,63.96588486
3.244,-0.068054199,63.96588486
3.245,-0.070800781,63.96588486
3.246,-0.073547363,63.96588486
3.247,-0.076293945,63.96588486
3.248,-0.078735352,63.96588486
3.249,-0.081176758,63.96588486
3.25,-0.083312988,63.96588486
3.251,-0.085144043,63.96588486
3.252,-0.087280273,63.96588486
3.253,-0.088806152,63.96588486
3.254,-0.090332031,63.96588486
3.255,-0.09185791,63.96588486
3.256,-0.093078613,63.96588486
3.257,-0.093994141,63.96588486
3.258,-0.094604492,63.96588486
3.259,-0.095214844,63.96588486
3.26,-0.09552002,63.96588486
3.261,-0.095214844,63.96588486
3.262,-0.094604492,63.96588486
3.263,-0.093688965,63.96588486
3.264,-0.092163086,63.96588486
3.265,-0.090332031,63.96588486
3.266,-0.088500977,63.96588486
3.267,-0.086975098,63.96588486
3.268,-0.085144043,63.96588486
3.269,-0.083618164,63.96588486
3.27,-0.082092285,63.96588486
3.271,-0.080871582,63.96588486
3.272,-0.079956055,63.96588486
3.273,-0.079345703,63.96588486
3.274,-0.079040527,63.96588486
3.275,-0.078735352,63.96588486
3.276,-0.079040527,63.96588486
3.277,-0.079650879,63.96588486
3.278,-0.080566406,63.96588486
3.279,-0.081787109,63.96588486
3.28,-0.083007813,63.96588486
3.281,-0.084533691,63.96588486
3.282,-0.08605957,63.96588486
3.283,-0.087280273,63.96588486
3.284,-0.088500977,63.96588486
3.285,-0.08972168,63.96588486
3.286,-0.090637207,63.96588486
3.287,-0.091552734,63.96588486
3.288,-0.09185791,63.96588486
3.289,-0.092163086,63.96588486
3.29,-0.092163086,63.96588486
3.291,-0.092468262,63.96588486
3.292,-0.092468262,63.96588486
3.293,-0.092468262,63.96588486
3.294,-0.092773438,63.96588486
3.295,-0.092773438,63.96588486
3.296,-0.092773438,63.96588486
3.297,-0.092773438,63.96588486
3.298,-0.092468262,63.96588486
3.299,-0.09185791,63.96588486
3.3,-0.091247559,63.96588486
3.301,-0.090637207,63.96588486
3.302,-0.090332031,63.96588486
3.303,-0.08972168,63.96588486
3.304,-0.088806152,63.96588486
3.305,-0.087890625,63.96588486
3.306,-0.086975098,63.96588486
3.307,-0.085754395,63.96588486
3.308,-0.084228516,63.96588486
3.309,-0.082702637,63.96588486
3.31,-0.080871582,63.96588486
3.311,-0.079345703,63.96588486
3.312,-0.077514648,63.96588486
3.313,-0.075683594,63.96588486
3.314,-0.073852539,63.96588486
3.315,-0.072021484,63.96588486
3.316,-0.070495605,63.96588486
3.317,-0.069274902,63.96588486
3.318,-0.068359375,63.96588486
3.319,-0.068054199,63.96588486
3.32,-0.067749023,63.96588486
3.321,-0.067749023,63.96588486
3.322,-0.068054199,63.96588486
3.323,-0.068359375,63.96588486
3.324,-0.068664551,63.96588486
3.325,-0.068969727,63.96588486
3.326,-0.069274902,63.96588486
3.327,-0.069274902,63.96588486
3.328,-0.069274902,63.96588486
3.329,-0.069274902,63.96588486
3.33,-0.069274902,63.96588486
3.331,-0.069274902,63.96588486
3.332,-0.069274902,63.96588486
3.333,-0.068969727,63.96588486
3.334,-0.068969727,63.96588486
3.335,-0.068664551,63.96588486
3.336,-0.068054199,63.96588486
3.337,-0.067138672,63.96588486
3.338,-0.066223145,63.96588486
3.339,-0.064697266,63.96588486
3.34,-0.062866211,63.96588486
3.341,-0.061035156,63.96588486
3.342,-0.059204102,63.96588486
3.343,-0.057678223,63.96588486
3.344,-0.05645752,63.96588486
3.345,-0.055236816,63.96588486
3.346,-0.054016113,63.96588486
3.347,-0.053100586,63.96588486
3.348,-0.052185059,63.96588486
3.349,-0.051574707,63.96588486
3.35,-0.051269531,63.96588486
3.351,-0.051269531,63.96588486
3.352,-0.051269531,63.96588486
3.353,-0.051269531,63.96588486
3.354,-0.051269531,63.96588486
3.355,-0.051269531,63.96588486
3.356,-0.051269531,63.96588486
3.357,-0.051269531,63.96588486
3.358,-0.051879883,63.96588486
3.359,-0.052490234,63.96588486
3.36,-0.053710938,63.96588486
3.361,-0.054931641,63.96588486
3.362,-0.056152344,63.96588486
3.363,-0.057373047,63.96588486
3.364,-0.057983398,63.96588486
3.365,-0.05859375,63.96588486
3.366,-0.058898926,63.96588486
3.367,-0.058898926,63.96588486
3.368,-0.058898926,63.96588486
3.369,-0.05859375,63.96588486
3.37,-0.058288574,63.96588486
3.371,-0.057373047,63.96588486
3.372,-0.056152344,63.96588486
3.373,-0.054931641,63.96588486
3.374,-0.053710938,63.96588486
3.375,-0.052490234,63.96588486
3.376,-0.051269531,63.96588486
3.377,-0.050354004,63.96588486
3.378,-0.049133301,63.96588486
3.379,-0.048217773,63.96588486
3.38,-0.047302246,63.96588486
3.381,-0.046386719,63.96588486
3.382,-0.045166016,63.96588486
3.383,-0.044250488,63.96588486
3.384,-0.043334961,63.96588486
3.385,-0.042724609,63.96588486
3.386,-0.042724609,63.96588486
3.387,-0.043029785,63.96588486
3.388,-0.043945313,63.96588486
3.389,-0.044555664,63.96588486
3.39,-0.045471191,63.96588486
3.391,-0.046386719,63.96588486
3.392,-0.04699707,63.96588486
3.393,-0.047302246,63.96588486
3.394,-0.047607422,63.96588486
3.395,-0.047607422,63.96588486
3.396,-0.047607422,63.96588486
3.397,-0.047912598,63.96588486
3.398,-0.047912598,63.96588486
3.399,-0.048217773,63.96588486
3.4,-0.048217773,63.96588486
3.401,-0.048217773,63.96588486
3.402,-0.048217773,63.96588486
3.403,-0.047912598,63.96588486
3.404,-0.047607422,63.96588486
3.405,-0.04699707,63.96588486
3.406,-0.046386719,63.96588486
3.407,-0.045776367,63.96588486
3.408,-0.045471191,63.96588486
3.409,-0.045166016,63.96588486
3.41,-0.045166016,63.96588486
3.411,-0.045471191,63.96588486
3.412,-0.046081543,63.96588486
3.413,-0.046691895,63.96588486
3.414,-0.047607422,63.96588486
3.415,-0.048522949,63.96588486
3.416,-0.049438477,63.96588486
3.417,-0.050048828,63.96588486
3.418,-0.050964355,63.96588486
3.419,-0.051574707,63.96588486
3.42,-0.052490234,63.96588486
3.421,-0.053100586,63.96588486
3.422,-0.053710938,63.96588486
3.423,-0.054321289,63.96588486
3.424,-0.054626465,63.96588486
3.425,-0.054626465,63.96588486
3.426,-0.054626465,63.96588486
3.427,-0.054016113,63.96588486
3.428,-0.053405762,63.96588486
3.429,-0.052185059,63.96588486
3.43,-0.050964355,63.96588486
3.431,-0.049133301,63.96588486
3.432,-0.047607422,63.96588486
3.433,-0.045776367,63.96588486
3.434,-0.044250488,63.96588486
3.435,-0.042724609,63.96588486
3.436,-0.041503906,63.96588486
3.437,-0.040588379,63.96588486
3.438,-0.039978027,63.96588486
3.439,-0.039672852,63.96588486
3.44,-0.039367676,63.96588486
3.441,-0.0390625,63.96588486
3.442,-0.0390625,63.96588486
3.443,-0.0390625,63.96588486
3.444,-0.0390625,63.96588486
3.445,-0.039367676,63.96588486
3.446,-0.039978027,63.96588486
3.447,-0.040893555,63.96588486
3.448,-0.042114258,63.96588486
3.449,-0.043640137,63.96588486
3.45,-0.04486084,63.96588486
3.451,-0.046386719,63.96588486
3.452,-0.047607422,63.96588486
3.453,-0.048828125,63.96588486
3.454,-0.049743652,63.96588486
3.455,-0.05065918,63.96588486
3.456,-0.051269531,63.96588486
3.457,-0.051574707,63.96588486
3.458,-0.051879883,63.96588486
3.459,-0.051879883,63.96588486
3.46,-0.052185059,63.96588486
3.461,-0.052490234,63.96588486
3.462,-0.052490234,63.96588486
3.463,-0.052185059,63.96588486
3.464,-0.051879883,63.96588486
3.465,-0.051574707,63.96588486
3.466,-0.050964355,63.96588486
3.467,-0.050354004,63.96588486
3.468,-0.049438477,63.96588486
3.469,-0.048522949,63.96588486
3.47,-0.047607422,63.96588486
3.471,-0.047302246,63.96588486
3.472,-0.046691895,63.96588486
3.473,-0.046386719,63.96588486
3.474,-0.045776367,63.96588486
3.475,-0.04486084,63.96588486
3.476,-0.044250488,63.96588486
3.477,-0.043640137,63.96588486
3.478,-0.043334961,63.96588486
3.479,-0.043334961,63.96588486
3.48,-0.043029785,63.96588486
3.481,-0.043029785,63.96588486
3.482,-0.042724609,63.96588486
3.483,-0.042114258,63.96588486
3.484,-0.041809082,63.96588486
3.485,-0.04119873,63.96588486
3.486,-0.040893555,63.96588486
3.487,-0.040283203,63.96588486
3.488,-0.039978027,63.96588486
3.489,-0.039672852,63.96588486
3.49,-0.039367676,63.96588486
3.491,-0.0390625,63.96588486
3.492,-0.038757324,63.96588486
3.493,-0.038452148,63.96588486
3.494,-0.038146973,63.96588486
3.495,-0.038146973,63.96588486
3.496,-0.037841797,63.96588486
3.497,-0.037841797,63.96588486
3.498,-0.037841797,63.96588486
3.499,-0.037841797,63.96588486
3.5,-0.038452148,63.96588486
3.501,-0.0390625,63.96588486
3.502,-0.039672852,63.96588486
3.503,-0.040588379,63.96588486
3.504,-0.04119873,63.96588486
3.505,-0.042114258,63.96588486
3.506,-0.042724609,63.96588486
3.507,-0.043334961,63.96588486
3.508,-0.043945313,63.96588486
3.509,-0.044555664,63.96588486
3.51,-0.04486084,63.96588486
3.511,-0.04486084,63.96588486
3.512,-0.04486084,63.96588486
3.513,-0.04486084,63.96588486
3.514,-0.044250488,63.96588486
3.515,-0.043640137,63.96588486
3.516,-0.043029785,63.96588486
3.517,-0.042114258,63.96588486
3.518,-0.04119873,63.96588486
3.519,-0.040893555,63.96588486
3.52,-0.040588379,63.96588486
3.521,-0.040893555,63.96588486
3.522,-0.04119873,63.96588486
3.523,-0.041503906,63.96588486
3.524,-0.041809082,63.96588486
3.525,-0.042114258,63.96588486
3.526,-0.042419434,63.96588486
3.527,-0.042724609,63.96588486
3.528,-0.043334961,63.96588486
3.529,-0.043945313,63.96588486
3.53,-0.044555664,63.96588486
3.531,-0.045166016,63.96588486
3.532,-0.045471191,63.96588486
3.533,-0.045776367,63.96588486
3.534,-0.045776367,63.96588486
3.535,-0.045776367,63.96588486
3.536,-0.045471191,63.96588486
3.537,-0.04486084,63.96588486
3.538,-0.043945313,63.96588486
3.539,-0.043029785,63.96588486
3.54,-0.042114258,63.96588486
3.541,-0.040893555,63.96588486
3.542,-0.039978027,63.96588486
3.543,-0.039367676,63.96588486
3.544,-0.038452148,63.96588486
3.545,-0.037536621,63.96588486
3.546,-0.036621094,63.96588486
3.547,-0.036010742,63.96588486
3.548,-0.035095215,63.96588486
3.549,-0.034790039,63.96588486
3.55,-0.034179688,63.96588486
3.551,-0.033874512,63.96588486
3.552,-0.033569336,63.96588486
3.553,-0.033569336,63.96588486
3.554,-0.034179688,63.96588486
3.555,-0.034790039,63.96588486
3.556,-0.035705566,63.96588486
3.557,-0.036621094,63.96588486
3.558,-0.037536621,63.96588486
3.559,-0.038452148,63.96588486
3.56,-0.0390625,63.96588486
3.561,-0.039978027,63.96588486
3.562,-0.040893555,63.96588486
3.563,-0.042114258,63.96588486
3.564,-0.043334961,63.96588486
3.565,-0.044250488,63.96588486
3.566,-0.044555664,63.96588486
3.567,-0.04486084,63.96588486
3.568,-0.04486084,63.96588486
3.569,-0.044555664,63.96588486
3.57,-0.043945313,63.96588486
3.571,-0.043334961,63.96588486
3.572,-0.042419434,63.96588486
3.573,-0.04119873,63.96588486
3.574,-0.039978027,63.96588486
3.575,-0.0390625,63.96588486
3.576,-0.037841797,63.96588486
3.577,-0.036621094,63.96588486
3.578,-0.035705566,63.96588486
3.579,-0.035095215,63.96588486
3.58,-0.034484863,63.96588486
3.581,-0.033874512,63.96588486
3.582,-0.033569336,63.96588486
3.583,-0.03326416,63.96588486
3.584,-0.03326416,63.96588486
3.585,-0.032958984,63.96588486
3.586,-0.032653809,63.96588486
3.587,-0.032348633,63.96588486
3.588,-0.031738281,63.96588486
3.589,-0.03112793,63.96588486
3.59,-0.030212402,63.96588486
3.591,-0.029296875,63.96588486
3.592,-0.028381348,63.96588486
3.593,-0.027770996,63.96588486
3.594,-0.02746582,63.96588486
3.595,-0.026855469,63.96588486
3.596,-0.026855469,63.96588486
3.597,-0.026855469,63.96588486
3.598,-0.027160645,63.96588486
3.599,-0.027770996,63.96588486
3.6,-0.028686523,63.96588486
3.601,-0.029907227,63.96588486
3.602,-0.03112793,63.96588486
3.603,-0.032348633,63.96588486
3.604,-0.033569336,63.96588486
3.605,-0.035095215,63.96588486
3.606,-0.036621094,63.96588486
3.607,-0.037841797,63.96588486
3.608,-0.039367676,63.96588486
3.609,-0.040588379,63.96588486
3.61,-0.04119873,63.96588486
3.611,-0.041503906,63.96588486
3.612,-0.04119873,63.96588486
3.613,-0.040588379,63.96588486
3.614,-0.039367676,63.96588486
3.615,-0.037536621,63.96588486
3.616,-0.035400391,63.96588486
3.617,-0.03326416,63.96588486
3.618,-0.030822754,63.96588486
3.619,-0.028381348,63.96588486
3.62,-0.025939941,63.96588486
3.621,-0.023803711,63.96588486
3.622,-0.021972656,63.96588486
3.623,-0.020141602,63.96588486
3.624,-0.018920898,63.96588486
3.625,-0.018005371,63.96588486
3.626,-0.01739502,63.96588486
3.627,-0.017089844,63.96588486
3.628,-0.017089844,63.96588486
3.629,-0.01739502,63.96588486
3.63,-0.018310547,63.96588486
3.631,-0.019226074,63.96588486
3.632,-0.020751953,63.96588486
3.633,-0.022277832,63.96588486
3.634,-0.024108887,63.96588486
3.635,-0.025634766,63.96588486
3.636,-0.026855469,63.96588486
3.637,-0.028381348,63.96588486
3.638,-0.029602051,63.96588486
3.639,-0.03112793,63.96588486
3.64,-0.032348633,63.96588486
3.641,-0.033569336,63.96588486
3.642,-0.034484863,63.96588486
3.643,-0.035095215,63.96588486
3.644,-0.035400391,63.96588486
3.645,-0.035400391,63.96588486
3.646,-0.035400391,63.96588486
3.647,-0.035400391,63.96588486
3.648,-0.034790039,63.96588486
3.649,-0.034484863,63.96588486
3.65,-0.033874512,63.96588486
3.651,-0.03326416,63.96588486
3.652,-0.032958984,63.96588486
3.653,-0.032653809,63.96588486
3.654,-0.032348633,63.96588486
3.655,-0.031738281,63.96588486
3.656,-0.03112793,63.96588486
3.657,-0.030212402,63.96588486
3.658,-0.029296875,63.96588486
3.659,-0.028381348,63.96588486
3.66,-0.027770996,63.96588486
3.661,-0.027160645,63.96588486
3.662,-0.026550293,63.96588486
3.663,-0.026245117,63.96588486
3.664,-0.026245117,63.96588486
3.665,-0.026245117,63.96588486
3.666,-0.026245117,63.96588486
3.667,-0.026550293,63.96588486
3.668,-0.026550293,63.96588486
3.669,-0.026855469,63.96588486
3.67,-0.026855469,63.96588486
3.671,-0.027160645,63.96588486
3.672,-0.027160645,63.96588486
3.673,-0.027160645,63.96588486
3.674,-0.02746582,63.96588486
3.675,-0.027770996,63.96588486
3.676,-0.027770996,63.96588486
3.677,-0.027770996,63.96588486
3.678,-0.02746582,63.96588486
3.679,-0.027160645,63.96588486
3.68,-0.026855469,63.96588486
3.681,-0.026245117,63.96588486
3.682,-0.02532959,63.96588486
3.683,-0.024414063,63.96588486
3.684,-0.023498535,63.96588486
3.685,-0.023193359,63.96588486
3.686,-0.022583008,63.96588486
3.687,-0.022583008,63.96588486
3.688,-0.022583008,63.96588486
3.689,-0.022583008,63.96588486
3.69,-0.022277832,63.96588486
3.691,-0.022277832,63.96588486
3.692,-0.021972656,63.96588486
3.693,-0.02166748,63.96588486
3.694,-0.02166748,63.96588486
3.695,-0.02166748,63.96588486
3.696,-0.022277832,63.96588486
3.697,-0.022888184,63.96588486
3.698,-0.023193359,63.96588486
3.699,-0.023498535,63.96588486
3.7,-0.023193359,63.96588486
3.701,-0.022583008,63.96588486
3.702,-0.02166748,63.96588486
3.703,-0.020141602,63.96588486
3.704,-0.018920898,63.96588486
3.705,-0.01739502,63.96588486
3.706,-0.016174316,63.96588486
3.707,-0.014648438,63.96588486
3.708,-0.013427734,63.96588486
3.709,-0.012207031,63.96588486
3.71,-0.010986328,63.96588486
3.711,-0.009765625,63.96588486
3.712,-0.008544922,63.96588486
3.713,-0.007324219,63.96588486
3.714,-0.00579834,63.96588486
3.715,-0.004272461,63.96588486
3.716,-0.002441406,63.96588486
3.717,-0.000610352,63.96588486
3.718,0.001525879,63.96588486
3.719,0.003356934,63.96588486
3.72,0.00579834,63.96588486
3.721,0.008544922,63.96588486
3.722,0.01159668,63.96588486
3.723,0.014953613,63.96588486
3.724,0.018005371,63.96588486
3.725,0.021057129,63.96588486
3.726,0.023498535,63.96588486
3.727,0.025634766,63.96588486
3.728,0.026855469,63.96588486
3.729,0.02746582,63.96588486
3.73,0.027770996,63.96588486
3.731,0.02746582,63.96588486
3.732,0.027160645,63.96588486
3.733,0.026550293,63.96588486
3.734,0.025634766,63.96588486
3.735,0.024414063,63.96588486
3.736,0.023193359,63.96588486
3.737,0.021362305,63.96588486
3.738,0.019836426,63.96588486
3.739,0.018615723,63.96588486
3.74,0.018005371,63.96588486
3.741,0.017700195,63.96588486
3.742,0.018310547,63.96588486
3.743,0.01953125,63.96588486
3.744,0.021972656,63.96588486
3.745,0.025024414,63.96588486
3.746,0.028686523,63.96588486
3.747,0.032653809,63.96588486
3.748,0.03692627,63.96588486
3.749,0.04119873,63.96588486
3.75,0.045471191,63.96588486
3.751,0.049743652,63.96588486
3.752,0.053710938,63.96588486
3.753,0.057373047,63.96588486
3.754,0.06072998,63.96588486
3.755,0.063781738,63.96588486
3.756,0.066223145,63.96588486
3.757,0.068054199,63.96588486
3.758,0.069274902,63.96588486
3.759,0.069885254,63.96588486
3.76,0.07019043,63.96588486
3.761,0.070495605,63.96588486
3.762,0.070495605,63.96588486
3.763,0.070800781,63.96588486
3.764,0.070800781,63.96588486
3.765,0.070495605,63.96588486
3.766,0.07019043,63.96588486
3.767,0.069885254,63.96588486
3.768,0.069580078,63.96588486
3.769,0.068969727,63.96588486
3.77,0.068664551,63.96588486
3.771,0.068054199,63.96588486
3.772,0.067443848,63.96588486
3.773,0.066833496,63.96588486
3.774,0.066223145,63.96588486
3.775,0.065307617,63.96588486
3.776,0.064697266,63.96588486
3.777,0.063781738,63.96588486
3.778,0.062561035,63.96588486
3.779,0.061340332,63.96588486
3.78,0.059509277,63.96588486
3.781,0.057678223,63.96588486
3.782,0.055541992,63.96588486
3.783,0.053100586,63.96588486
3.784,0.050354004,63.96588486
3.785,0.047302246,63.96588486
3.786,0.043945313,63.96588486
3.787,0.039978027,63.96588486
3.788,0.036010742,63.96588486
3.789,0.031738281,63.96588486
3.79,0.027770996,63.96588486
3.791,0.023498535,63.96588486
3.792,0.01953125,63.96588486
3.793,0.015258789,63.96588486
3.794,0.01159668,63.96588486
3.795,0.00793457,63.96588486
3.796,0.004577637,63.96588486
3.797,0.001525879,63.96588486
3.798,-0.001525879,63.96588486
3.799,-0.003967285,63.96588486
3.8,-0.006408691,63.96588486
3.801,-0.008239746,63.96588486
3.802,-0.010070801,63.96588486
3.803,-0.01159668,63.96588486
3.804,-0.013122559,63.96588486
3.805,-0.014648438,63.96588486
3.806,-0.016479492,63.96588486
3.807,-0.018310547,63.96588486
3.808,-0.020446777,63.96588486
3.809,-0.022583008,63.96588486
3.81,-0.024414063,63.96588486
3.811,-0.026245117,63.96588486
3.812,-0.027770996,63.96588486
3.813,-0.028991699,63.96588486
3.814,-0.030517578,63.96588486
3.815,-0.031433105,63.96588486
3.816,-0.032653809,63.96588486
3.817,-0.033569336,63.96588486
3.818,-0.034179688,63.96588486
3.819,-0.035095215,63.96588486
3.82,-0.036010742,63.96588486
3.821,-0.036621094,63.96588486
3.822,-0.03692627,63.96588486
3.823,-0.03692627,63.96588486
3.824,-0.03692627,63.96588486
3.825,-0.036621094,63.96588486
3.826,-0.036315918,63.96588486
3.827,-0.036315918,63.96588486
3.828,-0.036315918,63.96588486
3.829,-0.036621094,63.96588486
3.83,-0.037231445,63.96588486
3.831,-0.038452148,63.96588486
3.832,-0.039672852,63.96588486
3.833,-0.04119873,63.96588486
3.834,-0.042419434,63.96588486
3.835,-0.043945313,63.96588486
3.836,-0.045166016,63.96588486
3.837,-0.046081543,63.96588486
3.838,-0.04699707,63.96588486
3.839,-0.047912598,63.96588486
3.84,-0.048522949,63.96588486
3.841,-0.049133301,63.96588486
3.842,-0.049438477,63.96588486
3.843,-0.049438477,63.96588486
3.844,-0.049743652,63.96588486
3.845,-0.049743652,63.96588486
3.846,-0.049743652,63.96588486
3.847,-0.049438477,63.96588486
3.848,-0.049743652,63.96588486
3.849,-0.049743652,63.96588486
3.85,-0.050048828,63.96588486
3.851,-0.050354004,63.96588486
3.852,-0.050354004,63.96588486
3.853,-0.050354004,63.96588486
3.854,-0.050048828,63.96588486
3.855,-0.050048828,63.96588486
3.856,-0.050048828,63.96588486
3.857,-0.050048828,63.96588486
3.858,-0.050048828,63.96588486
3.859,-0.050354004,63.96588486
3.86,-0.05065918,63.96588486
3.861,-0.05065918,63.96588486
3.862,-0.050354004,63.96588486
3.863,-0.050048828,63.96588486
3.864,-0.049743652,63.96588486
3.865,-0.049438477,63.96588486
3.866,-0.049133301,63.96588486
3.867,-0.048522949,63.96588486
3.868,-0.048217773,63.96588486
3.869,-0.048217773,63.96588486
3.87,-0.048828125,63.96588486
3.871,-0.049743652,63.96588486
3.872,-0.051574707,63.96588486
3.873,-0.054321289,63.96588486
3.874,-0.057983398,63.96588486
3.875,-0.062561035,63.96588486
3.876,-0.068359375,63.96588486
3.877,-0.074768066,63.96588486
3.878,-0.082092285,63.96588486
3.879,-0.090026855,63.96588486
3.88,-0.098571777,63.96588486
3.881,-0.107421875,63.96588486
3.882,-0.116271973,63.96588486
3.883,-0.12512207,63.96588486
3.884,-0.133666992,63.96588486
3.885,-0.140991211,63.96588486
3.886,-0.147399902,63.96588486
3.887,-0.151977539,63.96588486
3.888,-0.154418945,63.96588486
3.889,-0.154418945,63.96588486
3.89,-0.151672363,63.96588486
3.891,-0.145568848,63.96588486
3.892,-0.136108398,63.96588486
3.893,-0.12298584,63.96588486
3.894,-0.10559082,63.96588486
3.895,-0.084533691,63.96588486
3.896,-0.059204102,63.96588486
3.897,-0.029602051,63.96588486
3.898,0.003967285,63.96588486
3.899,0.042114258,63.96588486
3.9,0.08392334,63.96588486
3.901,0.12878418,63.96588486
3.902,0.176696777,63.96588486
3.903,0.227050781,63.96588486
3.904,0.27923584,63.96588486
3.905,0.332946777,63.96588486
3.906,0.388183594,63.96588486
3.907,0.444030762,63.96588486
3.908,0.49987793,63.96588486
3.909,0.555114746,63.96588486
3.91,0.609436035,63.96588486
3.911,0.66192627,63.96588486
3.912,0.712280273,63.96588486
3.913,0.760192871,63.96588486
3.914,0.805358887,63.96588486
3.915,0.847473145,63.96588486
3.916,0.88684082,63.96588486
3.917,0.923461914,63.96588486
3.918,0.95703125,63.96588486
3.919,0.986633301,63.96588486
3.92,1.012268066,63.96588486
3.921,1.033325195,63.96588486
3.922,1.049499512,63.96588486
3.923,1.059875488,63.96588486
3.924,1.063842773,63.96588486
3.925,1.061096191,63.96588486
3.926,1.051330566,63.96588486
3.927,1.034545898,63.96588486
3.928,1.011047363,63.96588486
3.929,0.980224609,63.96588486
3.93,0.942382813,63.96588486
3.931,0.897216797,63.96588486
3.932,0.845336914,60.91370558
3.933,0.78704834,60.91370558
3.934,0.722961426,60.91370558
3.935,0.654296875,60.91370558
3.936,0.581970215,60.91370558
3.937,0.507507324,60.91370558
3.938,0.432434082,60.91370558
3.939,0.358276367,60.91370558
3.94,0.285949707,60.91370558
3.941,0.216674805,60.91370558
3.942,0.151977539,60.91370558
3.943,0.092163086,60.91370558
3.944,0.038146973,60.91370558
3.945,-0.009460449,60.91370558
3.946,-0.050354004,60.91370558
3.947,-0.084228516,60.91370558
3.948,-0.111083984,60.91370558
3.949,-0.131530762,60.91370558
3.95,-0.145263672,60.91370558
3.951,-0.153503418,60.91370558
3.952,-0.156860352,60.91370558
3.953,-0.155944824,60.91370558
3.954,-0.151977539,60.91370558
3.955,-0.145263672,60.91370558
3.956,-0.13671875,60.91370558
3.957,-0.126953125,60.91370558
3.958,-0.116882324,60.91370558
3.959,-0.106811523,60.91370558
3.96,-0.097961426,60.91370558
3.961,-0.090026855,60.91370558
3.962,-0.083312988,60.91370558
3.963,-0.078125,60.91370558
3.964,-0.074157715,60.91370558
3.965,-0.071716309,60.91370558
3.966,-0.070800781,60.91370558
3.967,-0.071105957,60.91370558
3.968,-0.072937012,60.91370558
3.969,-0.07598877,60.91370558
3.97,-0.08026123,60.91370558
3.971,-0.085449219,60.91370558
3.972,-0.090942383,60.91370558
3.973,-0.096435547,60.91370558
3.974,-0.101928711,60.91370558
3.975,-0.107116699,60.91370558
3.976,-0.111694336,60.91370558
3.977,-0.115661621,60.91370558
3.978,-0.119018555,60.91370558
3.979,-0.121765137,60.91370558
3.98,-0.123596191,60.91370558
3.981,-0.124816895,60.91370558
3.982,-0.12512207,60.91370558
3.983,-0.124816895,60.91370558
3.984,-0.123901367,60.91370558
3.985,-0.122070313,60.91370558
3.986,-0.119628906,60.91370558
3.987,-0.116882324,60.91370558
3.988,-0.113525391,60.91370558
3.989,-0.110473633,60.91370558
3.99,-0.107116699,60.91370558
3.991,-0.103759766,60.91370558
3.992,-0.100708008,60.91370558
3.993,-0.097961426,60.91370558
3.994,-0.09552002,60.91370558
3.995,-0.093383789,60.91370558
3.996,-0.091552734,60.91370558
3.997,-0.08972168,60.91370558
3.998,-0.088195801,60.91370558
3.999,-0.086975098,60.91370558
4,-0.085754395,60.91370558
4.001,-0.084838867,60.91370558
4.002,-0.084533691,60.91370558
4.003,-0.084228516,60.91370558
4.004,-0.083618164,60.91370558
4.005,-0.083007813,60.91370558
4.006,-0.082092285,60.91370558
4.007,-0.081176758,60.91370558
4.008,-0.08026123,60.91370558
4.009,-0.079345703,60.91370558
4.01,-0.078430176,60.91370558
4.011,-0.077209473,60.91370558
4.012,-0.07598877,60.91370558
4.013,-0.074768066,60.91370558
4.014,-0.073547363,60.91370558
4.015,-0.07232666,60.91370558
4.016,-0.071105957,60.91370558
4.017,-0.069885254,60.91370558
4.018,-0.068969727,60.91370558
4.019,-0.068054199,60.91370558
4.02,-0.067443848,60.91370558
4.021,-0.067443848,60.91370558
4.022,-0.067749023,60.91370558
4.023,-0.068359375,60.91370558
4.024,-0.068969727,60.91370558
4.025,-0.069885254,60.91370558
4.026,-0.070495605,60.91370558
4.027,-0.071105957,60.91370558
4.028,-0.071411133,60.91370558
4.029,-0.071716309,60.91370558
4.03,-0.071716309,60.91370558
4.031,-0.071716309,60.91370558
4.032,-0.071411133,60.91370558
4.033,-0.071105957,60.91370558
4.034,-0.070800781,60.91370558
4.035,-0.07019043,60.91370558
4.036,-0.068969727,60.91370558
4.037,-0.067443848,60.91370558
4.038,-0.065307617,60.91370558
4.039,-0.062561035,60.91370558
4.04,-0.059509277,60.91370558
4.041,-0.056152344,60.91370558
4.042,-0.053100586,60.91370558
4.043,-0.050354004,60.91370558
4.044,-0.047607422,60.91370558
4.045,-0.04486084,60.91370558
4.046,-0.041809082,60.91370558
4.047,-0.0390625,60.91370558
4.048,-0.036315918,60.91370558
4.049,-0.033874512,60.91370558
4.05,-0.032043457,60.91370558
4.051,-0.030517578,60.91370558
4.052,-0.029602051,60.91370558
4.053,-0.029296875,60.91370558
4.054,-0.028991699,60.91370558
4.055,-0.028991699,60.91370558
4.056,-0.029296875,60.91370558
4.057,-0.029907227,60.91370558
4.058,-0.030517578,60.91370558
4.059,-0.03112793,60.91370558
4.06,-0.031738281,60.91370558
4.061,-0.032348633,60.91370558
4.062,-0.032653809,60.91370558
4.063,-0.032653809,60.91370558
4.064,-0.032348633,60.91370558
4.065,-0.031738281,60.91370558
4.066,-0.030822754,60.91370558
4.067,-0.029602051,60.91370558
4.068,-0.028076172,60.91370558
4.069,-0.026550293,60.91370558
4.07,-0.024719238,60.91370558
4.071,-0.022583008,60.91370558
4.072,-0.020751953,60.91370558
4.073,-0.018615723,60.91370558
4.074,-0.017089844,60.91370558
4.075,-0.015869141,60.91370558
4.076,-0.014953613,60.91370558
4.077,-0.014343262,60.91370558
4.078,-0.01373291,60.91370558
4.079,-0.013427734,60.91370558
4.08,-0.013427734,60.91370558
4.081,-0.013427734,60.91370558
4.082,-0.013427734,60.91370558
4.083,-0.013427734,60.91370558
4.084,-0.013122559,60.91370558
4.085,-0.013122559,60.91370558
4.086,-0.012817383,60.91370558
4.087,-0.012512207,60.91370558
4.088,-0.011901855,60.91370558
4.089,-0.011291504,60.91370558
4.09,-0.010070801,60.91370558
4.091,-0.008850098,60.91370558
4.092,-0.007019043,60.91370558
4.093,-0.004882813,60.91370558
4.094,-0.00213623,60.91370558
4.095,0.000915527,60.91370558
4.096,0.004272461,60.91370558
4.097,0.007324219,60.91370558
4.098,0.010070801,60.91370558
4.099,0.012512207,60.91370558
4.1,0.014953613,60.91370558
4.101,0.017089844,60.91370558
4.102,0.019226074,60.91370558
4.103,0.021057129,60.91370558
4.104,0.022583008,60.91370558
4.105,0.024414063,60.91370558
4.106,0.026550293,60.91370558
4.107,0.028381348,60.91370558
4.108,0.030517578,60.91370558
4.109,0.032653809,60.91370558
4.11,0.034484863,60.91370558
4.111,0.035400391,60.91370558
4.112,0.036315918,60.91370558
4.113,0.036621094,60.91370558
4.114,0.036621094,60.91370558
4.115,0.03692627,60.91370558
4.116,0.037536621,60.91370558
4.117,0.038452148,60.91370558
4.118,0.039367676,60.91370558
4.119,0.040283203,60.91370558
4.12,0.040893555,60.91370558
4.121,0.04119873,60.91370558
4.122,0.041809082,60.91370558
4.123,0.042419434,60.91370558
4.124,0.043334961,60.91370558
4.125,0.043945313,60.91370558
4.126,0.04486084,60.91370558
4.127,0.045776367,60.91370558
4.128,0.04699707,60.91370558
4.129,0.048522949,60.91370558
4.13,0.050048828,60.91370558
4.131,0.052185059,60.91370558
4.132,0.054321289,60.91370558
4.133,0.056762695,60.91370558
4.134,0.059509277,60.91370558
4.135,0.062255859,60.91370558
4.136,0.065002441,60.91370558
4.137,0.067749023,60.91370558
4.138,0.070495605,60.91370558
4.139,0.073242188,60.91370558
4.14,0.07598877,60.91370558
4.141,0.078430176,60.91370558
4.142,0.080566406,60.91370558
4.143,0.082702637,60.91370558
4.144,0.084228516,60.91370558
4.145,0.085754395,60.91370558
4.146,0.087280273,60.91370558
4.147,0.088500977,60.91370558
4.148,0.089416504,60.91370558
4.149,0.090637207,60.91370558
4.15,0.091552734,60.91370558
4.151,0.092468262,60.91370558
4.152,0.093078613,60.91370558
4.153,0.093078613,60.91370558
4.154,0.093078613,60.91370558
4.155,0.093383789,60.91370558
4.156,0.093688965,60.91370558
4.157,0.094299316,60.91370558
4.158,0.095214844,60.91370558
4.159,0.096130371,60.91370558
4.16,0.097351074,60.91370558
4.161,0.098266602,60.91370558
4.162,0.099487305,60.91370558
4.163,0.100402832,60.91370558
4.164,0.101318359,60.91370558
4.165,0.101928711,60.91370558
4.166,0.102539063,60.91370558
4.167,0.103149414,60.91370558
4.168,0.103149414,60.91370558
4.169,0.102844238,60.91370558
4.17,0.102233887,60.91370558
4.171,0.101013184,60.91370558
4.172,0.099487305,60.91370558
4.173,0.098266602,60.91370558
4.174,0.097045898,60.91370558
4.175,0.09552002,60.91370558
4.176,0.094299316,60.91370558
4.177,0.092468262,60.91370558
4.178,0.090637207,60.91370558
4.179,0.089111328,60.91370558
4.18,0.087585449,60.91370558
4.181,0.08605957,60.91370558
4.182,0.084838867,60.91370558
4.183,0.084228516,60.91370558
4.184,0.083618164,60.91370558
4.185,0.083007813,60.91370558
4.186,0.082702637,60.91370558
4.187,0.082397461,60.91370558
4.188,0.082092285,60.91370558
4.189,0.081481934,60.91370558
4.19,0.080871582,60.91370558
4.191,0.079956055,60.91370558
4.192,0.078430176,60.91370558
4.193,0.076293945,60.91370558
4.194,0.074157715,60.91370558
4.195,0.071716309,60.91370558
4.196,0.068969727,60.91370558
4.197,0.066223145,60.91370558
4.198,0.062866211,60.91370558
4.199,0.059204102,60.91370558
4.2,0.054931641,60.91370558
4.201,0.05065918,60.91370558
4.202,0.046081543,60.91370558
4.203,0.040893555,60.91370558
4.204,0.035400391,60.91370558
4.205,0.029602051,60.91370558
4.206,0.024108887,60.91370558
4.207,0.018615723,60.91370558
4.208,0.013427734,60.91370558
4.209,0.008239746,60.91370558
4.21,0.003356934,60.91370558
4.211,-0.001220703,60.91370558
4.212,-0.00579834,60.91370558
4.213,-0.010375977,60.91370558
4.214,-0.014648438,60.91370558
4.215,-0.018920898,60.91370558
4.216,-0.023498535,60.91370558
4.217,-0.02746582,60.91370558
4.218,-0.031433105,60.91370558
4.219,-0.034790039,60.91370558
4.22,-0.037841797,60.91370558
4.221,-0.040283203,60.91370558
4.222,-0.042419434,60.91370558
4.223,-0.044250488,60.91370558
4.224,-0.046081543,60.91370558
4.225,-0.048217773,60.91370558
4.226,-0.050048828,60.91370558
4.227,-0.051574707,60.91370558
4.228,-0.052490234,60.91370558
4.229,-0.053405762,60.91370558
4.23,-0.053710938,60.91370558
4.231,-0.054016113,60.91370558
4.232,-0.054016113,60.91370558
4.233,-0.054626465,60.91370558
4.234,-0.054931641,60.91370558
4.235,-0.055847168,60.91370558
4.236,-0.057373047,60.91370558
4.237,-0.059204102,60.91370558
4.238,-0.061645508,60.91370558
4.239,-0.063781738,60.91370558
4.24,-0.065917969,60.91370558
4.241,-0.067749023,60.91370558
4.242,-0.069885254,60.91370558
4.243,-0.072021484,60.91370558
4.244,-0.074462891,60.91370558
4.245,-0.076904297,60.91370558
4.246,-0.079345703,60.91370558
4.247,-0.081787109,60.91370558
4.248,-0.084228516,60.91370558
4.249,-0.086364746,60.91370558
4.25,-0.087890625,60.91370558
4.251,-0.089111328,60.91370558
4.252,-0.089416504,60.91370558
4.253,-0.089416504,60.91370558
4.254,-0.089111328,60.91370558
4.255,-0.088806152,60.91370558
4.256,-0.088195801,60.91370558
4.257,-0.087585449,60.91370558
4.258,-0.086669922,60.91370558
4.259,-0.085754395,60.91370558
4.26,-0.084838867,60.91370558
4.261,-0.083618164,60.91370558
4.262,-0.082397461,60.91370558
4.263,-0.080871582,60.91370558
4.264,-0.079345703,60.91370558
4.265,-0.077514648,60.91370558
4.266,-0.075683594,60.91370558
4.267,-0.074157715,60.91370558
4.268,-0.07232666,60.91370558
4.269,-0.070800781,60.91370558
4.27,-0.069274902,60.91370558
4.271,-0.068054199,60.91370558
4.272,-0.06652832,60.91370558
4.273,-0.065002441,60.91370558
4.274,-0.063171387,60.91370558
4.275,-0.061950684,60.91370558
4.276,-0.060424805,60.91370558
4.277,-0.059509277,60.91370558
4.278,-0.05859375,60.91370558
4.279,-0.057983398,60.91370558
4.28,-0.057373047,60.91370558
4.281,-0.057067871,60.91370558
4.282,-0.057067871,60.91370558
4.283,-0.057373047,60.91370558
4.284,-0.057678223,60.91370558
4.285,-0.058288574,60.91370558
4.286,-0.058898926,60.91370558
4.287,-0.059509277,60.91370558
4.288,-0.060119629,60.91370558
4.289,-0.06072998,60.91370558
4.29,-0.061340332,60.91370558
4.291,-0.061645508,60.91370558
4.292,-0.062255859,60.91370558
4.293,-0.062561035,60.91370558
4.294,-0.062255859,60.91370558
4.295,-0.062255859,60.91370558
4.296,-0.061950684,60.91370558
4.297,-0.061645508,60.91370558
4.298,-0.061340332,60.91370558
4.299,-0.061035156,60.91370558
4.3,-0.060424805,60.91370558
4.301,-0.059814453,60.91370558
4.302,-0.05859375,60.91370558
4.303,-0.057678223,60.91370558
4.304,-0.05645752,60.91370558
4.305,-0.055541992,60.91370558
4.306,-0.054931641,60.91370558
4.307,-0.054321289,60.91370558
4.308,-0.053710938,60.91370558
4.309,-0.053405762,60.91370558
4.31,-0.053100586,60.91370558
4.311,-0.05279541,60.91370558
4.312,-0.052490234,60.91370558
4.313,-0.052490234,60.91370558
4.314,-0.05279541,60.91370558
4.315,-0.053100586,60.91370558
4.316,-0.053710938,60.91370558
4.317,-0.054321289,60.91370558
4.318,-0.054626465,60.91370558
4.319,-0.054931641,60.91370558
4.32,-0.055236816,60.91370558
4.321,-0.055236816,60.91370558
4.322,-0.054931641,60.91370558
4.323,-0.054626465,60.91370558
4.324,-0.054321289,60.91370558
4.325,-0.054016113,60.91370558
4.326,-0.053405762,60.91370558
4.327,-0.052490234,60.91370558
4.328,-0.051879883,60.91370558
4.329,-0.050964355,60.91370558
4.33,-0.050354004,60.91370558
4.331,-0.050048828,60.91370558
4.332,-0.049133301,60.91370558
4.333,-0.048217773,60.91370558
4.334,-0.04699707,60.91370558
4.335,-0.045166016,60.91370558
4.336,-0.043640137,60.91370558
4.337,-0.042114258,60.91370558
4.338,-0.040893555,60.91370558
4.339,-0.040283203,60.91370558
4.34,-0.039978027,60.91370558
4.341,-0.039672852,60.91370558
4.342,-0.039978027,60.91370558
4.343,-0.039978027,60.91370558
4.344,-0.039672852,60.91370558
4.345,-0.0390625,60.91370558
4.346,-0.038146973,60.91370558
4.347,-0.037231445,60.91370558
4.348,-0.036315918,60.91370558
4.349,-0.035705566,60.91370558
4.35,-0.035400391,60.91370558
4.351,-0.035400391,60.91370558
4.352,-0.035400391,60.91370558
4.353,-0.035705566,60.91370558
4.354,-0.036010742,60.91370558
4.355,-0.036315918,60.91370558
4.356,-0.036315918,60.91370558
4.357,-0.036621094,60.91370558
4.358,-0.03692627,60.91370558
4.359,-0.037231445,60.91370558
4.36,-0.037536621,60.91370558
4.361,-0.038146973,60.91370558
4.362,-0.038757324,60.91370558
4.363,-0.039367676,60.91370558
4.364,-0.040283203,60.91370558
4.365,-0.041503906,60.91370558
4.366,-0.042724609,60.91370558
4.367,-0.043945313,60.91370558
4.368,-0.04486084,60.91370558
4.369,-0.045776367,60.91370558
4.37,-0.046081543,60.91370558
4.371,-0.045471191,60.91370558
4.372,-0.044555664,60.91370558
4.373,-0.043334961,60.91370558
4.374,-0.042114258,60.91370558
4.375,-0.040893555,60.91370558
4.376,-0.039367676,60.91370558
4.377,-0.037841797,60.91370558
4.378,-0.036315918,60.91370558
4.379,-0.034790039,60.91370558
4.38,-0.03326416,60.91370558
4.381,-0.031738281,60.91370558
4.382,-0.030517578,60.91370558
4.383,-0.028991699,60.91370558
4.384,-0.028076172,60.91370558
4.385,-0.027160645,60.91370558
4.386,-0.026550293,60.91370558
4.387,-0.026245117,60.91370558
4.388,-0.025939941,60.91370558
4.389,-0.025634766,60.91370558
4.39,-0.025634766,60.91370558
4.391,-0.026245117,60.91370558
4.392,-0.027160645,60.91370558
4.393,-0.028076172,60.91370558
4.394,-0.029296875,60.91370558
4.395,-0.030212402,60.91370558
4.396,-0.03112793,60.91370558
4.397,-0.031433105,60.91370558
4.398,-0.032043457,60.91370558
4.399,-0.032348633,60.91370558
4.4,-0.032653809,60.91370558
4.401,-0.03326416,60.91370558
4.402,-0.034179688,60.91370558
4.403,-0.035095215,60.91370558
4.404,-0.036010742,60.91370558
4.405,-0.03692627,60.91370558
4.406,-0.037841797,60.91370558
4.407,-0.038757324,60.91370558
4.408,-0.039672852,60.91370558
4.409,-0.040893555,60.91370558
4.41,-0.042114258,60.91370558
4.411,-0.043029785,60.91370558
4.412,-0.044250488,60.91370558
4.413,-0.04486084,60.91370558
4.414,-0.045471191,60.91370558
4.415,-0.046081543,60.91370558
4.416,-0.04699707,60.91370558
4.417,-0.047912598,60.91370558
4.418,-0.048522949,60.91370558
4.419,-0.049133301,60.91370558
4.42,-0.049133301,60.91370558
4.421,-0.049133301,60.91370558
4.422,-0.048522949,60.91370558
4.423,-0.047912598,60.91370558
4.424,-0.047302246,60.91370558
4.425,-0.046691895,60.91370558
4.426,-0.046386719,60.91370558
4.427,-0.046081543,60.91370558
4.428,-0.045776367,60.91370558
4.429,-0.045471191,60.91370558
4.43,-0.045166016,60.91370558
4.431,-0.04486084,60.91370558
4.432,-0.044555664,60.91370558
4.433,-0.044250488,60.91370558
4.434,-0.043945313,60.91370558
4.435,-0.043640137,60.91370558
4.436,-0.043334961,60.91370558
4.437,-0.043334961,60.91370558
4.438,-0.043334961,60.91370558
4.439,-0.043029785,60.91370558
4.44,-0.042724609,60.91370558
4.441,-0.042724609,60.91370558
4.442,-0.042419434,60.91370558
4.443,-0.041809082,60.91370558
4.444,-0.041503906,60.91370558
4.445,-0.040588379,60.91370558
4.446,-0.039978027,60.91370558
