Time (sec),"CH 1, ECG (mV)","CH40, Heart Rate (mV)"
0,0.014648438,0
0.001,0.014953613,0
0.002,0.015869141,0
0.003,0.016479492,0
0.004,0.01739502,0
0.005,0.018310547,0
0.006,0.018920898,0
0.007,0.019836426,0
0.008,0.020446777,0
0.009,0.02166748,0
0.01,0.023193359,0
0.011,0.025024414,0
0.012,0.026855469,0
0.013,0.029296875,0
0.014,0.031433105,0
0.015,0.033569336,0
0.016,0.036010742,0
0.017,0.038452148,0
0.018,0.040893555,0
0.019,0.043640137,0
0.02,0.046386719,0
0.021,0.049133301,0
0.022,0.051269531,0
0.023,0.053100586,0
0.024,0.054626465,0
0.025,0.056152344,0
0.026,0.057678223,0
0.027,0.058898926,0
0.028,0.060424805,0
0.029,0.061645508,0
0.03,0.062561035,0
0.031,0.063171387,0
0.032,0.063781738,0
0.033,0.064086914,0
0.034,0.06439209,0
0.035,0.06439209,0
0.036,0.06439209,0
0.037,0.064086914,0
0.038,0.063781738,0
0.039,0.063476563,0
0.04,0.063171387,0
0.041,0.062866211,0
0.042,0.062255859,0
0.043,0.061645508,0
0.044,0.060424805,0
0.045,0.05859375,0
0.046,0.056762695,0
0.047,0.054321289,0
0.048,0.051879883,0
0.049,0.049438477,0
0.05,0.04699707,0
0.051,0.044250488,0
0.052,0.04119873,0
0.053,0.038146973,0
0.054,0.034790039,0
0.055,0.03112793,0
0.056,0.02746582,0
0.057,0.023803711,0
0.058,0.019836426,0
0.059,0.016479492,0
0.06,0.013122559,0
0.061,0.010070801,0
0.062,0.007019043,0
0.063,0.003967285,0
0.064,0.000915527,0
0.065,-0.00213623,0
0.066,-0.005187988,0
0.067,-0.008239746,0
0.068,-0.010986328,0
0.069,-0.01373291,0
0.07,-0.015869141,0
0.071,-0.017700195,0
0.072,-0.01953125,0
0.073,-0.021057129,0
0.074,-0.022583008,0
0.075,-0.024108887,0
0.076,-0.02532959,0
0.077,-0.026550293,0
0.078,-0.02746582,0
0.079,-0.028381348,0
0.08,-0.029296875,0
0.081,-0.030212402,0
0.082,-0.03112793,0
0.083,-0.032043457,0
0.084,-0.032653809,0
0.085,-0.032958984,0
0.086,-0.03326416,0
0.087,-0.033569336,0
0.088,-0.033874512,0
0.089,-0.034484863,0
0.09,-0.035095215,0
0.091,-0.036010742,0
0.092,-0.037231445,0
0.093,-0.038452148,0
0.094,-0.039672852,0
0.095,-0.04119873,0
0.096,-0.042724609,0
0.097,-0.043945313,0
0.098,-0.045471191,0
0.099,-0.046691895,0
0.1,-0.047607422,0
0.101,-0.048828125,0
0.102,-0.049743652,0
0.103,-0.050964355,0
0.104,-0.051879883,0
0.105,-0.05279541,0
0.106,-0.053405762,0
0.107,-0.053710938,0
0.108,-0.054016113,0
0.109,-0.053710938,0
0.11,-0.053100586,0
0.111,-0.052185059,0
0.112,-0.051269531,0
0.113,-0.05065918,0
0.114,-0.050354004,0
0.115,-0.050048828,0
0.116,-0.050354004,0
0.117,-0.05065918,0
0.118,-0.051269531,0
0.119,-0.052185059,0
0.12,-0.053405762,0
0.121,-0.054321289,0
0.122,-0.055236816,0
0.123,-0.056152344,0
0.124,-0.057067871,0
0.125,-0.057983398,0
0.126,-0.05859375,0
0.127,-0.059509277,0
0.128,-0.059814453,0
0.129,-0.059814453,0
0.13,-0.059509277,0
0.131,-0.058898926,0
0.132,-0.057678223,0
0.133,-0.056152344,0
0.134,-0.054626465,0
0.135,-0.053100586,0
0.136,-0.051879883,0
0.137,-0.051269531,0
0.138,-0.050964355,0
0.139,-0.051269531,0
0.14,-0.052490234,0
0.141,-0.054626465,0
0.142,-0.057373047,0
0.143,-0.061340332,0
0.144,-0.065917969,0
0.145,-0.071716309,0
0.146,-0.078125,0
0.147,-0.08605957,0
0.148,-0.094604492,0
0.149,-0.10345459,0
0.15,-0.112609863,0
0.151,-0.121154785,0
0.152,-0.128479004,0
0.153,-0.134887695,0
0.154,-0.139770508,0
0.155,-0.142822266,0
0.156,-0.144042969,0
0.157,-0.143432617,0
0.158,-0.140075684,0
0.159,-0.133666992,0
0.16,-0.123596191,0
0.161,-0.109863281,0
0.162,-0.09185791,0
0.163,-0.069885254,0
0.164,-0.043945313,0
0.165,-0.014038086,0
0.166,0.019226074,0
0.167,0.056152344,0
0.168,0.096435547,0
0.169,0.139465332,0
0.17,0.185241699,0
0.171,0.233459473,0
0.172,0.283813477,0
0.173,0.335388184,0
0.174,0.388183594,0
0.175,0.44128418,0
0.176,0.494384766,0
0.177,0.547180176,0
0.178,0.599060059,0
0.179,0.649719238,0
0.18,0.698242188,0
0.181,0.744628906,0
0.182,0.788574219,0
0.183,0.830383301,0
0.184,0.869445801,0
0.185,0.90637207,0
0.186,0.940246582,0
0.187,0.97076416,0
0.188,0.997009277,0
0.189,1.018676758,0
0.19,1.035461426,0
0.191,1.04675293,0
0.192,1.052246094,0
0.193,1.051025391,0
0.194,1.042785645,0
0.195,1.026916504,0
0.196,1.003723145,0
0.197,0.972900391,0
0.198,0.934753418,0
0.199,0.889587402,0
0.2,0.83770752,0
0.201,0.779418945,0
0.202,0.715332031,0
0.203,0.646972656,0
0.204,0.574951172,0
0.205,0.501098633,0
0.206,0.426940918,0
0.207,0.353088379,0
0.208,0.281066895,0
0.209,0.212097168,0
0.21,0.147399902,0
0.211,0.087585449,0
0.212,0.034179688,0
0.213,-0.012817383,0
0.214,-0.052490234,0
0.215,-0.085449219,0
0.216,-0.11138916,0
0.217,-0.13092041,0
0.218,-0.14465332,0
0.219,-0.152893066,0
0.22,-0.156860352,0
0.221,-0.156860352,0
0.222,-0.153808594,0
0.223,-0.14831543,0
0.224,-0.141296387,0
0.225,-0.133361816,0
0.226,-0.124816895,0
0.227,-0.116271973,0
0.228,-0.108032227,0
0.229,-0.100402832,0
0.23,-0.093688965,0
0.231,-0.087890625,0
0.232,-0.083312988,0
0.233,-0.079956055,0
0.234,-0.077514648,0
0.235,-0.076293945,0
0.236,-0.07598877,0
0.237,-0.076293945,0
0.238,-0.077209473,0
0.239,-0.078735352,0
0.24,-0.08026123,0
0.241,-0.082397461,0
0.242,-0.084533691,0
0.243,-0.086669922,0
0.244,-0.088500977,0
0.245,-0.090026855,0
0.246,-0.091552734,0
0.247,-0.092468262,0
0.248,-0.093383789,0
0.249,-0.094299316,0
0.25,-0.094604492,0
0.251,-0.094604492,0
0.252,-0.094604492,0
0.253,-0.094604492,0
0.254,-0.094299316,0
0.255,-0.093994141,0
0.256,-0.093688965,0
0.257,-0.093383789,0
0.258,-0.093078613,0
0.259,-0.092773438,0
0.26,-0.092468262,0
0.261,-0.09185791,0
0.262,-0.091247559,0
0.263,-0.090942383,0
0.264,-0.090637207,0
0.265,-0.090332031,0
0.266,-0.090026855,0
0.267,-0.089416504,0
0.268,-0.088806152,0
0.269,-0.088195801,0
0.27,-0.087280273,0
0.271,-0.086669922,0
0.272,-0.085449219,0
0.273,-0.084533691,0
0.274,-0.083312988,0
0.275,-0.082092285,0
0.276,-0.080566406,0
0.277,-0.079345703,0
0.278,-0.077819824,0
0.279,-0.076293945,0
0.28,-0.074768066,0
0.281,-0.073547363,0
0.282,-0.072021484,0
0.283,-0.070495605,0
0.284,-0.068969727,0
0.285,-0.067443848,0
0.286,-0.065917969,0
0.287,-0.064086914,0
0.288,-0.062561035,0
0.289,-0.06072998,0
0.29,-0.059204102,0
0.291,-0.057067871,0
0.292,-0.055236816,0
0.293,-0.053405762,0
0.294,-0.051269531,0
0.295,-0.049438477,0
0.296,-0.047912598,0
0.297,-0.046386719,0
0.298,-0.045166016,0
0.299,-0.044555664,0
0.3,-0.043945313,0
0.301,-0.043640137,0
0.302,-0.043334961,0
0.303,-0.042724609,0
0.304,-0.042114258,0
0.305,-0.041809082,0
0.306,-0.041503906,0
0.307,-0.041503906,0
0.308,-0.041503906,0
0.309,-0.041503906,0
0.31,-0.04119873,0
0.311,-0.040283203,0
0.312,-0.039367676,0
0.313,-0.038146973,0
0.314,-0.036621094,0
0.315,-0.035400391,0
0.316,-0.033874512,0
0.317,-0.032348633,0
0.318,-0.030517578,0
0.319,-0.028686523,0
0.32,-0.026550293,0
0.321,-0.024108887,0
0.322,-0.021972656,0
0.323,-0.019836426,0
0.324,-0.018310547,0
0.325,-0.01739502,0
0.326,-0.016479492,0
0.327,-0.015869141,0
0.328,-0.014953613,0
0.329,-0.014648438,0
0.33,-0.014038086,0
0.331,-0.014038086,0
0.332,-0.014038086,0
0.333,-0.014343262,0
0.334,-0.014953613,0
0.335,-0.015563965,0
0.336,-0.016174316,0
0.337,-0.016784668,0
0.338,-0.017089844,0
0.339,-0.01739502,0
0.34,-0.01739502,0
0.341,-0.017089844,0
0.342,-0.016784668,0
0.343,-0.016174316,0
0.344,-0.014953613,0
0.345,-0.01373291,0
0.346,-0.011901855,0
0.347,-0.010070801,0
0.348,-0.008239746,0
0.349,-0.006103516,0
0.35,-0.003662109,0
0.351,-0.001220703,0
0.352,0.001831055,0
0.353,0.004577637,0
0.354,0.007324219,0
0.355,0.010070801,0
0.356,0.012512207,0
0.357,0.014648438,0
0.358,0.016479492,0
0.359,0.018310547,0
0.36,0.019836426,0
0.361,0.021362305,0
0.362,0.022888184,0
0.363,0.024108887,0
0.364,0.025024414,0
0.365,0.025939941,0
0.366,0.026855469,0
0.367,0.027160645,0
0.368,0.02746582,0
0.369,0.02746582,0
0.37,0.02746582,0
0.371,0.02746582,0
0.372,0.02746582,0
0.373,0.027770996,0
0.374,0.027770996,0
0.375,0.028076172,0
0.376,0.028686523,0
0.377,0.029296875,0
0.378,0.030517578,0
0.379,0.031738281,0
0.38,0.03326416,0
0.381,0.034790039,0
0.382,0.036621094,0
0.383,0.038452148,0
0.384,0.039978027,0
0.385,0.041809082,0
0.386,0.043334961,0
0.387,0.045471191,0
0.388,0.047302246,0
0.389,0.049133301,0
0.39,0.050964355,0
0.391,0.05279541,0
0.392,0.054016113,0
0.393,0.055236816,0
0.394,0.05645752,0
0.395,0.057678223,0
0.396,0.058898926,0
0.397,0.059814453,0
0.398,0.06072998,0
0.399,0.061950684,0
0.4,0.063476563,0
0.401,0.065307617,0
0.402,0.067749023,0
0.403,0.07019043,0
0.404,0.07232666,0
0.405,0.074768066,0
0.406,0.076904297,0
0.407,0.079040527,0
0.408,0.081176758,0
0.409,0.083312988,0
0.41,0.085449219,0
0.411,0.087585449,0
0.412,0.08972168,0
0.413,0.09185791,0
0.414,0.093688965,0
0.415,0.09552002,0
0.416,0.097045898,0
0.417,0.098571777,0
0.418,0.100097656,0
0.419,0.101623535,0
0.42,0.102844238,0
0.421,0.104675293,0
0.422,0.106506348,0
0.423,0.108642578,0
0.424,0.110778809,0
0.425,0.112609863,0
0.426,0.114135742,0
0.427,0.114746094,0
0.428,0.115356445,0
0.429,0.115661621,0
0.43,0.115661621,0
0.431,0.115356445,0
0.432,0.11505127,0
0.433,0.114440918,0
0.434,0.113525391,0
0.435,0.112304688,0
0.436,0.111083984,0
0.437,0.109558105,0
0.438,0.108032227,0
0.439,0.106506348,0
0.44,0.105285645,0
0.441,0.103759766,0
0.442,0.102233887,0
0.443,0.101013184,0
0.444,0.09979248,0
0.445,0.098571777,0
0.446,0.097961426,0
0.447,0.097351074,0
0.448,0.097351074,0
0.449,0.09765625,0
0.45,0.097961426,0
0.451,0.097961426,0
0.452,0.097351074,0
0.453,0.096435547,0
0.454,0.094909668,0
0.455,0.092773438,0
0.456,0.090026855,0
0.457,0.087280273,0
0.458,0.084228516,0
0.459,0.080871582,0
0.46,0.077209473,0
0.461,0.073547363,0
0.462,0.069274902,0
0.463,0.06439209,0
0.464,0.059204102,0
0.465,0.053710938,0
0.466,0.048217773,0
0.467,0.042724609,0
0.468,0.037231445,0
0.469,0.031738281,0
0.47,0.026855469,0
0.471,0.022277832,0
0.472,0.018005371,0
0.473,0.014038086,0
0.474,0.009765625,0
0.475,0.005493164,0
0.476,0.001220703,0
0.477,-0.003051758,0
0.478,-0.007019043,0
0.479,-0.010986328,0
0.48,-0.015258789,0
0.481,-0.01953125,0
0.482,-0.024108887,0
0.483,-0.028381348,0
0.484,-0.032958984,0
0.485,-0.037536621,0
0.486,-0.042419434,0
0.487,-0.047302246,0
0.488,-0.051879883,0
0.489,-0.05645752,0
0.49,-0.060424805,0
0.491,-0.064086914,0
0.492,-0.067443848,0
0.493,-0.069885254,0
0.494,-0.071716309,0
0.495,-0.073242188,0
0.496,-0.074157715,0
0.497,-0.074768066,0
0.498,-0.075073242,0
0.499,-0.075073242,0
0.5,-0.075073242,0
0.501,-0.074768066,0
0.502,-0.074768066,0
0.503,-0.074768066,0
0.504,-0.074768066,0
0.505,-0.074768066,0
0.506,-0.075073242,0
0.507,-0.075378418,0
0.508,-0.075683594,0
0.509,-0.076599121,0
0.51,-0.077209473,0
0.511,-0.077819824,0
0.512,-0.078430176,0
0.513,-0.078735352,0
0.514,-0.079040527,0
0.515,-0.079345703,0
0.516,-0.079040527,0
0.517,-0.078430176,0
0.518,-0.078125,0
0.519,-0.077819824,0
0.52,-0.077819824,0
0.521,-0.078125,0
0.522,-0.078125,0
0.523,-0.078125,0
0.524,-0.078125,0
0.525,-0.078735352,0
0.526,-0.079345703,0
0.527,-0.079956055,0
0.528,-0.080871582,0
0.529,-0.082092285,0
0.53,-0.083312988,0
0.531,-0.084533691,0
0.532,-0.085754395,0
0.533,-0.086975098,0
0.534,-0.088195801,0
0.535,-0.089111328,0
0.536,-0.090026855,0
0.537,-0.090637207,0
0.538,-0.090637207,0
0.539,-0.090637207,0
0.54,-0.090332031,0
0.541,-0.08972168,0
0.542,-0.089111328,0
0.543,-0.088195801,0
0.544,-0.087585449,0
0.545,-0.086975098,0
0.546,-0.086364746,0
0.547,-0.085754395,0
0.548,-0.085144043,0
0.549,-0.084533691,0
0.55,-0.083312988,0
0.551,-0.082092285,0
0.552,-0.080566406,0
0.553,-0.079040527,0
0.554,-0.077209473,0
0.555,-0.075378418,0
0.556,-0.073547363,0
0.557,-0.07232666,0
0.558,-0.071716309,0
0.559,-0.071105957,0
0.56,-0.07019043,0
0.561,-0.068969727,0
0.562,-0.067749023,0
0.563,-0.066833496,0
0.564,-0.06652832,0
0.565,-0.06652832,0
0.566,-0.066833496,0
0.567,-0.067443848,0
0.568,-0.068664551,0
0.569,-0.069885254,0
0.57,-0.071411133,0
0.571,-0.072937012,0
0.572,-0.073852539,0
0.573,-0.074462891,0
0.574,-0.074768066,0
0.575,-0.074768066,0
0.576,-0.074157715,0
0.577,-0.073547363,0
0.578,-0.072937012,0
0.579,-0.071716309,0
0.58,-0.07019043,0
0.581,-0.068664551,0
0.582,-0.066833496,0
0.583,-0.064697266,0
0.584,-0.062561035,0
0.585,-0.060119629,0
0.586,-0.057678223,0
0.587,-0.055236816,0
0.588,-0.05279541,0
0.589,-0.050964355,0
0.59,-0.049743652,0
0.591,-0.048828125,0
0.592,-0.048217773,0
0.593,-0.047912598,0
0.594,-0.047607422,0
0.595,-0.047912598,0
0.596,-0.048217773,0
0.597,-0.048522949,0
0.598,-0.049133301,0
0.599,-0.049743652,0
0.6,-0.050354004,0
0.601,-0.050964355,0
0.602,-0.051574707,0
0.603,-0.052185059,0
0.604,-0.053100586,0
0.605,-0.054321289,0
0.606,-0.055236816,0
0.607,-0.05645752,0
0.608,-0.057678223,0
0.609,-0.05859375,0
0.61,-0.059814453,0
0.611,-0.06072998,0
0.612,-0.061645508,0
0.613,-0.063171387,0
0.614,-0.064697266,0
0.615,-0.066223145,0
0.616,-0.067749023,0
0.617,-0.068969727,0
0.618,-0.069885254,0
0.619,-0.070495605,0
0.62,-0.070800781,0
0.621,-0.070495605,0
0.622,-0.069885254,0
0.623,-0.068969727,0
0.624,-0.067443848,0
0.625,-0.065612793,0
0.626,-0.063781738,0
0.627,-0.061645508,0
0.628,-0.059814453,0
0.629,-0.057678223,0
0.63,-0.055541992,0
0.631,-0.053100586,0
0.632,-0.050964355,0
0.633,-0.049438477,0
0.634,-0.048522949,0
0.635,-0.048217773,0
0.636,-0.048522949,0
0.637,-0.048828125,0
0.638,-0.049133301,0
0.639,-0.049743652,0
0.64,-0.05065918,0
0.641,-0.051574707,0
0.642,-0.052490234,0
0.643,-0.053710938,0
0.644,-0.055236816,0
0.645,-0.05645752,0
0.646,-0.057983398,0
0.647,-0.059204102,0
0.648,-0.059814453,0
0.649,-0.060424805,0
0.65,-0.060424805,0
0.651,-0.059814453,0
0.652,-0.059204102,0
0.653,-0.057983398,0
0.654,-0.056152344,0
0.655,-0.054321289,0
0.656,-0.05279541,0
0.657,-0.051574707,0
0.658,-0.050354004,0
0.659,-0.049438477,0
0.66,-0.048217773,0
0.661,-0.04699707,0
0.662,-0.045776367,0
0.663,-0.04486084,0
0.664,-0.044250488,0
0.665,-0.043945313,0
0.666,-0.043945313,0
0.667,-0.043640137,0
0.668,-0.043334961,0
0.669,-0.042419434,0
0.67,-0.041809082,0
0.671,-0.04119873,0
0.672,-0.040893555,0
0.673,-0.041503906,0
0.674,-0.042419434,0
0.675,-0.043640137,0
0.676,-0.045166016,0
0.677,-0.046691895,0
0.678,-0.047912598,0
0.679,-0.049133301,0
0.68,-0.050354004,0
0.681,-0.051574707,0
0.682,-0.05279541,0
0.683,-0.054321289,0
0.684,-0.055541992,0
0.685,-0.056762695,0
0.686,-0.057678223,0
0.687,-0.058288574,0
0.688,-0.05859375,0
0.689,-0.058288574,0
0.69,-0.057983398,0
0.691,-0.057373047,0
0.692,-0.05645752,0
0.693,-0.055236816,0
0.694,-0.054016113,0
0.695,-0.05279541,0
0.696,-0.051269531,0
0.697,-0.050048828,0
0.698,-0.049133301,0
0.699,-0.048522949,0
0.7,-0.048217773,0
0.701,-0.047912598,0
0.702,-0.047912598,0
0.703,-0.048217773,0
0.704,-0.048522949,0
0.705,-0.048522949,0
0.706,-0.048522949,0
0.707,-0.048522949,0
0.708,-0.048217773,0
0.709,-0.047912598,0
0.71,-0.047607422,0
0.711,-0.04699707,0
0.712,-0.046691895,0
0.713,-0.046386719,0
0.714,-0.045776367,0
0.715,-0.045166016,0
0.716,-0.044555664,0
0.717,-0.043945313,0
0.718,-0.043640137,0
0.719,-0.043640137,0
0.72,-0.044250488,0
0.721,-0.044555664,0
0.722,-0.045471191,0
0.723,-0.046081543,0
0.724,-0.04699707,0
0.725,-0.047912598,0
0.726,-0.049133301,0
0.727,-0.050048828,0
0.728,-0.050964355,0
0.729,-0.051574707,0
0.73,-0.052185059,0
0.731,-0.05279541,0
0.732,-0.05279541,0
0.733,-0.053100586,0
0.734,-0.05279541,0
0.735,-0.05279541,0
0.736,-0.052490234,0
0.737,-0.051879883,0
0.738,-0.050964355,0
0.739,-0.049743652,0
0.74,-0.048217773,0
0.741,-0.046386719,0
0.742,-0.043945313,0
0.743,-0.041809082,0
0.744,-0.039367676,0
0.745,-0.037231445,0
0.746,-0.035095215,0
0.747,-0.033569336,0
0.748,-0.032653809,0
0.749,-0.032043457,0
0.75,-0.032043457,0
0.751,-0.032348633,0
0.752,-0.03326416,0
0.753,-0.034484863,0
0.754,-0.036010742,0
0.755,-0.038146973,0
0.756,-0.040893555,0
0.757,-0.043640137,0
0.758,-0.046691895,0
0.759,-0.049743652,0
0.76,-0.05279541,0
0.761,-0.055541992,0
0.762,-0.058288574,0
0.763,-0.060424805,0
0.764,-0.061950684,0
0.765,-0.062866211,0
0.766,-0.062866211,0
0.767,-0.062255859,0
0.768,-0.061035156,0
0.769,-0.059204102,0
0.77,-0.057373047,0
0.771,-0.054931641,0
0.772,-0.052490234,0
0.773,-0.049438477,0
0.774,-0.046386719,0
0.775,-0.043334961,0
0.776,-0.040283203,0
0.777,-0.037231445,0
0.778,-0.034484863,0
0.779,-0.032348633,0
0.78,-0.030212402,0
0.781,-0.028686523,0
0.782,-0.02746582,0
0.783,-0.026550293,0
0.784,-0.025634766,0
0.785,-0.025634766,0
0.786,-0.025634766,0
0.787,-0.025939941,0
0.788,-0.026550293,0
0.789,-0.027160645,0
0.79,-0.02746582,0
0.791,-0.028076172,0
0.792,-0.028381348,0
0.793,-0.028686523,0
0.794,-0.028991699,0
0.795,-0.029602051,0
0.796,-0.030212402,0
0.797,-0.03112793,0
0.798,-0.032043457,0
0.799,-0.032653809,0
0.8,-0.032958984,0
0.801,-0.032958984,0
0.802,-0.032958984,0
0.803,-0.032958984,0
0.804,-0.032653809,0
0.805,-0.032348633,0
0.806,-0.032043457,0
0.807,-0.031738281,0
0.808,-0.031433105,0
0.809,-0.03112793,0
0.81,-0.030822754,0
0.811,-0.030517578,0
0.812,-0.030212402,0
0.813,-0.029602051,0
0.814,-0.028686523,0
0.815,-0.027770996,0
0.816,-0.026855469,0
0.817,-0.025939941,0
0.818,-0.02532959,0
0.819,-0.024719238,0
0.82,-0.024414063,0
0.821,-0.024414063,0
0.822,-0.024108887,0
0.823,-0.024108887,0
0.824,-0.023803711,0
0.825,-0.024108887,0
0.826,-0.024108887,0
0.827,-0.024414063,0
0.828,-0.024414063,0
0.829,-0.024414063,0
0.83,-0.024414063,0
0.831,-0.024719238,0
0.832,-0.025024414,0
0.833,-0.025634766,0
0.834,-0.025939941,0
0.835,-0.026550293,0
0.836,-0.026855469,0
0.837,-0.026855469,0
0.838,-0.027160645,0
0.839,-0.026855469,0
0.84,-0.026855469,0
0.841,-0.026855469,0
0.842,-0.026855469,0
0.843,-0.026855469,0
0.844,-0.026855469,0
0.845,-0.026855469,0
0.846,-0.026550293,0
0.847,-0.025939941,0
0.848,-0.02532959,0
0.849,-0.024719238,0
0.85,-0.024414063,0
0.851,-0.023803711,0
0.852,-0.023193359,0
0.853,-0.022888184,0
0.854,-0.022583008,0
0.855,-0.022277832,0
0.856,-0.021972656,0
0.857,-0.022277832,0
0.858,-0.022583008,0
0.859,-0.023193359,0
0.86,-0.023803711,0
0.861,-0.024414063,0
0.862,-0.025024414,0
0.863,-0.025634766,0
0.864,-0.026245117,0
0.865,-0.026550293,0
0.866,-0.026855469,0
0.867,-0.026855469,0
0.868,-0.026855469,0
0.869,-0.026550293,0
0.87,-0.026245117,0
0.871,-0.02532959,0
0.872,-0.024414063,0
0.873,-0.023193359,0
0.874,-0.021972656,0
0.875,-0.020751953,0
0.876,-0.018920898,0
0.877,-0.017089844,0
0.878,-0.015258789,0
0.879,-0.013122559,0
0.88,-0.011291504,0
0.881,-0.009155273,0
0.882,-0.007019043,0
0.883,-0.004882813,0
0.884,-0.002746582,0
0.885,-0.000915527,0
0.886,0.000305176,0
0.887,0.001220703,0
0.888,0.001831055,0
0.889,0.002441406,0
0.89,0.003051758,0
0.891,0.003662109,0
0.892,0.004272461,0
0.893,0.004882813,0
0.894,0.004882813,0
0.895,0.005187988,0
0.896,0.005187988,0
0.897,0.005493164,0
0.898,0.00579834,0
0.899,0.006408691,0
0.9,0.007019043,0
0.901,0.008239746,0
0.902,0.009460449,0
0.903,0.010986328,0
0.904,0.012817383,0
0.905,0.014343262,0
0.906,0.016174316,0
0.907,0.01739502,0
0.908,0.018615723,0
0.909,0.01953125,0
0.91,0.020141602,0
0.911,0.021057129,0
0.912,0.021972656,0
0.913,0.023498535,0
0.914,0.024719238,0
0.915,0.026550293,0
0.916,0.028381348,0
0.917,0.030212402,0
0.918,0.032348633,0
0.919,0.034484863,0
0.92,0.03692627,0
0.921,0.039672852,0
0.922,0.042419434,0
0.923,0.045471191,0
0.924,0.048522949,0
0.925,0.051879883,0
0.926,0.055541992,0
0.927,0.059204102,0
0.928,0.062561035,0
